-30
-18
-3
12
22
24
17
4
-7
-12
-7
7
26
46
62
68
65
54
44
38
42
53
69
88
104
111
111
105
98
97
105
120
140
162
182
194
197
197
197
202
218
242
269
296
318
332
335
335
333
340
354
376
401
426
446
457
458
453
447
447
453
466
480
491
496
491
472
447
420
399
385
375
369
359
344
319
282
240
197
159
130
109
93
77
59
33
-2
-42
-80
-111
-134
-146
-153
-157
-163
-177
-198
-222
-246
-263
-272
-273
-268
-262
-258
-262
-272
-288
-301
-305
-303
-292
-275
-262
-252
-250
-258
-273
-285
-290
-287
-275
-255
-238
-223
-217
-221
-232
-243
-247
-244
-236
-219
-203
-192
-186
-191
-200
-204
-204
-197
-181
-163
-146
-132
-129
-135
-146
-157
-162
-158
-149
-135
-121
-111
-109
-114
-125
-132
-136
-134
-126
-116
-105
-98
-96
-102
-112
-120
-122
-120
-107
-94
-80
-71
-71
-80
-96
-111
-119
-117
-109
-96
-81
-71
-68
-74
-84
-95
-101
-99
-93
-84
-75
-71
-75
-86
-102
-117
-121
-116
-105
-90
-75
-65
-65
-74
-88
-101
-106
-105
-95
-79
-64
-53
-51
-59
-73
-86
-93
-89
-78
-60
-42
-27
-22
-24
-34
-40
-45
-40
-30
-15
-2
11
14
11
2
-9
-14
-15
-13
-8
-5
-7
-13
-30
-50
-68
-76
-74
-66
-55
-45
-42
-48
-63
-83
-100
-111
-112
-107
-99
-89
-83
-88
-100
-115
-129
-135
-131
-121
-105
-91
-80
-80
-88
-100
-111
-115
-110
-99
-84
-70
-61
-61
-69
-81
-93
-96
-91
-84
-71
-63
-61
-71
-95
-129
-162
-196
-222
-238
-242
-232
-208
-170
-116
-43
54
175
315
467
624
779
927
1059
1169
1251
1300
1312
1277
1190
1046
851
618
361
99
-144
-345
-492
-584
-620
-610
-568
-507
-441
-376
-321
-269
-223
-180
-145
-116
-96
-86
-89
-99
-112
-122
-124
-116
-102
-88
-71
-61
-58
-65
-75
-81
-80
-71
-58
-40
-25
-14
-13
-18
-28
-35
-37
-29
-15
0
14
22
22
12
-2
-13
-17
-12
1
17
33
44
48
42
31
26
26
37
53
73
93
106
111
108
100
97
99
111
129
149
167
184
187
186
182
184
191
210
233
261
287
307
319
322
325
330
344
365
390
416
439
452
457
455
450
446
449
458
471
485
493
495
486
466
440
416
400
386
376
364
345
319
284
240
195
155
123
99
80
65
48
24
-7
-45
-85
-120
-147
-162
-170
-175
-180
-190
-207
-231
-255
-274
-285
-288
-284
-279
-273
-274
-282
-294
-309
-318
-320
-313
-303
-290
-278
-272
-272
-279
-289
-293
-290
-283
-269
-253
-239
-232
-233
-242
-253
-260
-260
-249
-234
-218
-206
-197
-198
-207
-214
-221
-216
-204
-187
-170
-156
-149
-155
-167
-181
-190
-190
-177
-162
-142
-126
-117
-120
-131
-144
-150
-151
-142
-131
-119
-107
-104
-110
-122
-136
-144
-144
-136
-124
-109
-96
-91
-95
-106
-116
-122
-122
-115
-104
-93
-86
-86
-94
-107
-122
-131
-130
-121
-107
-93
-83
-79
-83
-94
-106
-112
-111
-106
-95
-83
-75
-73
-76
-88
-101
-109
-110
-105
-95
-85
-78
-76
-81
-93
-101
-106
-101
-91
-74
-58
-44
-38
-39
-48
-59
-64
-60
-50
-34
-20
-9
-5
-10
-19
-29
-30
-23
-9
7
21
28
21
4
-22
-47
-65
-74
-75
-68
-58
-48
-43
-44
-51
-60
-66
-68
-66
-65
-64
-69
-78
-94
-112
-126
-131
-127
-115
-102
-90
-81
-81
-91
-107
-122
-131
-130
-119
-101
-83
-65
-54
-53
-60
-69
-73
-73
-66
-56
-48
-42
-44
-53
-69
-86
-101
-112
-124
-139
-156
-177
-201
-223
-233
-226
-191
-127
-39
70
195
328
461
590
720
849
980
1108
1220
1303
1340
1318
1228
1070
856
605
340
82
-147
-336
-474
-559
-599
-596
-560
-500
-423
-339
-254
-181
-121
-83
-63
-64
-76
-91
-104
-106
-100
-90
-78
-68
-65
-69
-76
-85
-86
-80
-66
-53
-39
-30
-29
-37
-48
-56
-59
-53
-39
-22
-4
7
11
4
-8
-19
-24
-20
-10
4
21
33
39
38
31
24
23
28
38
50
63
73
77
72
65
63
65
75
92
111
130
146
155
156
152
151
155
167
186
210
235
257
273
283
289
296
308
327
350
374
399
419
430
434
431
430
435
447
463
485
504
518
521
512
495
475
458
450
446
444
439
427
406
375
337
298
264
236
212
191
167
140
105
63
18
-22
-55
-79
-95
-107
-117
-130
-149
-175
-204
-231
-250
-262
-265
-262
-258
-255
-260
-273
-289
-305
-315
-319
-315
-308
-299
-294
-295
-303
-313
-319
-320
-313
-301
-287
-273
-263
-259
-263
-272
-277
-277
-268
-255
-241
-227
-218
-218
-224
-234
-241
-241
-234
-222
-206
-191
-182
-181
-187
-198
-207
-207
-200
-186
-168
-152
-144
-144
-153
-168
-181
-186
-181
-171
-155
-137
-125
-121
-122
-131
-137
-139
-134
-122
-109
-98
-89
-89
-98
-109
-120
-121
-120
-110
-99
-89
-83
-86
-96
-111
-124
-130
-127
-117
-105
-93
-85
-84
-90
-101
-112
-117
-117
-110
-104
-94
-90
-91
-100
-111
-120
-121
-115
-102
-89
-78
-71
-76
-86
-100
-107
-107
-99
-85
-69
-59
-53
-56
-69
-85
-100
-106
-104
-91
-75
-59
-47
-43
-47
-55
-61
-60
-53
-40
-24
-9
1
3
-2
-10
-18
-19
-14
-8
-2
3
0
-10
-27
-45
-60
-68
-69
-61
-50
-44
-43
-50
-65
-79
-90
-93
-90
-85
-80
-76
-79
-88
-102
-117
-126
-126
-121
-111
-99
-89
-83
-88
-96
-107
-116
-116
-111
-101
-90
-84
-81
-88
-96
-105
-106
-100
-86
-69
-53
-40
-37
-45
-63
-83
-104
-122
-140
-156
-172
-186
-196
-202
-197
-173
-124
-48
54
175
310
449
587
716
840
960
1073
1172
1246
1277
1254
1169
1019
814
568
304
47
-180
-361
-487
-559
-578
-558
-509
-446
-372
-298
-222
-156
-105
-70
-51
-49
-64
-84
-105
-119
-119
-110
-93
-73
-55
-45
-47
-55
-66
-74
-76
-71
-60
-48
-35
-32
-33
-40
-49
-51
-45
-32
-15
2
16
23
21
12
2
-3
-2
6
17
29
38
42
37
28
19
17
21
33
50
69
85
97
98
94
89
90
98
110
126
144
157
166
167
167
167
176
192
216
242
266
286
296
299
296
296
302
319
344
374
404
430
447
453
452
450
450
457
468
482
496
504
507
498
483
465
450
440
435
430
425
414
391
361
319
277
240
207
181
157
136
113
82
44
4
-34
-64
-85
-98
-105
-114
-126
-146
-172
-203
-233
-257
-268
-270
-267
-260
-258
-263
-277
-295
-313
-324
-325
-319
-306
-292
-278
-270
-272
-279
-284
-288
-285
-278
-268
-257
-248
-246
-248
-255
-262
-263
-255
-243
-227
-211
-197
-192
-196
-206
-216
-221
-216
-206
-192
-177
-168
-166
-171
-182
-191
-193
-187
-176
-158
-142
-130
-125
-129
-139
-149
-155
-153
-147
-135
-122
-111
-107
-112
-124
-132
-136
-134
-125
-112
-102
-96
-95
-102
-114
-122
-126
-121
-110
-95
-84
-75
-76
-85
-100
-112
-119
-116
-106
-93
-80
-71
-70
-79
-93
-106
-115
-116
-110
-100
-90
-84
-84
-91
-104
-111
-116
-112
-102
-91
-79
-70
-69
-75
-86
-94
-96
-94
-84
-73
-63
-56
-58
-64
-74
-81
-80
-69
-54
-35
-18
-7
-8
-15
-30
-44
-51
-51
-42
-27
-9
4
12
12
4
-4
-10
-13
-14
-13
-12
-13
-20
-33
-49
-64
-71
-71
-64
-53
-44
-40
-44
-58
-75
-93
-100
-100
-91
-81
-70
-65
-69
-81
-99
-116
-125
-125
-117
-106
-93
-84
-80
-84
-93
-98
-98
-91
-80
-66
-55
-48
-50
-61
-75
-86
-91
-85
-76
-63
-50
-47
-51
-69
-95
-125
-155
-181
-201
-213
-217
-211
-192
-160
-109
-34
63
184
319
465
615
763
905
1034
1148
1243
1314
1348
1330
1254
1115
921
680
411
139
-111
-318
-471
-566
-609
-606
-571
-519
-458
-396
-335
-274
-217
-167
-125
-95
-78
-73
-83
-98
-109
-115
-111
-100
-84
-66
-51
-47
-50
-61
-74
-79
-76
-66
-50
-32
-18
-12
-13
-19
-25
-27
-22
-13
1
12
17
13
6
-4
-7
0
13
31
48
63
68
63
50
34
23
22
31
47
67
87
104
111
109
105
103
106
116
130
149
165
176
181
179
176
177
186
205
228
253
277
296
307
312
312
319
333
355
381
407
430
445
449
442
432
427
430
442
461
482
497
503
496
476
450
426
405
391
381
371
358
335
303
262
217
180
150
130
116
103
85
62
26
-19
-66
-109
-141
-162
-173
-180
-183
-191
-204
-226
-246
-259
-265
-262
-252
-242
-236
-239
-253
-275
-298
-315
-320
-311
-297
-278
-260
-249
-249
-257
-268
-275
-274
-267
-250
-234
-222
-217
-224
-239
-257
-268
-269
-259
-242
-221
-201
-187
-186
-193
-202
-208
-206
-196
-181
-165
-151
-146
-153
-167
-182
-190
-187
-175
-155
-134
-117
-111
-115
-131
-149
-160
-161
-155
-140
-121
-104
-94
-94
-104
-117
-126
-126
-119
-106
-94
-84
-80
-86
-100
-116
-125
-125
-112
-98
-79
-66
-61
-70
-88
-107
-124
-127
-120
-102
-83
-64
-53
-56
-69
-84
-94
-95
-90
-79
-66
-58
-58
-70
-89
-110
-122
-126
-119
-104
-90
-76
-71
-76
-93
-106
-115
-114
-105
-91
-78
-68
-65
-73
-86
-99
-106
-102
-90
-73
-55
-44
-42
-51
-68
-86
-96
-96
-85
-68
-48
-32
-23
-25
-34
-45
-49
-45
-33
-17
-2
11
13
4
-10
-24
-32
-25
-10
14
36
53
57
46
23
-5
-27
-40
-43
-38
-30
-27
-27
-37
-54
-70
-79
-78
-68
-54
-42
-33
-38
-54
-78
-101
-117
-121
-116
-102
-86
-75
-71
-76
-90
-104
-111
-109
-99
-84
-68
-58
-53
-60
-75
-90
-99
-95
-83
-64
-44
-28
-22
-29
-43
-60
-70
-73
-66
-56
-51
-53
-73
-107
-155
-200
-228
-229
-204
-153
-80
4
97
190
284
386
502
634
777
925
1067
1191
1281
1322
1304
1227
1101
934
727
497
253
13
-207
-395
-533
-612
-627
-585
-500
-394
-283
-186
-114
-73
-60
-64
-70
-71
-66
-56
-43
-33
-33
-44
-65
-83
-90
-83
-64
-38
-12
9
17
8
-14
-39
-58
-65
-58
-42
-20
1
13
8
-5
-24
-34
-30
-14
9
36
55
62
53
31
9
-2
2
21
47
78
101
111
103
82
60
49
53
72
101
133
160
172
169
149
130
123
133
159
194
233
266
283
279
261
242
236
249
281
322
368
405
425
422
405
389
384
400
432
473
516
549
560
549
519
488
472
473
491
518
546
558
546
503
440
373
322
296
292
303
315
315
287
227
141
57
-10
-51
-66
-60
-48
-42
-54
-93
-146
-202
-243
-263
-264
-250
-232
-219
-219
-239
-273
-308
-333
-340
-331
-311
-287
-268
-270
-290
-318
-340
-346
-339
-315
-287
-259
-242
-243
-260
-288
-311
-320
-315
-295
-268
-239
-219
-213
-226
-243
-257
-260
-249
-228
-203
-181
-168
-175
-196
-222
-242
-246
-233
-207
-176
-146
-129
-129
-147
-173
-195
-202
-192
-168
-139
-109
-89
-88
-105
-131
-155
-161
-153
-132
-104
-76
-59
-60
-80
-110
-135
-147
-141
-122
-96
-68
-51
-54
-75
-104
-126
-134
-124
-98
-64
-34
-15
-22
-44
-80
-110
-125
-121
-104
-78
-51
-38
-40
-63
-95
-119
-127
-119
-96
-66
-39
-24
-29
-51
-83
-110
-121
-114
-93
-65
-38
-23
-25
-48
-76
-100
-110
-102
-85
-61
-40
-32
-42
-68
-98
-119
-125
-112
-86
-55
-29
-18
-24
-49
-81
-106
-114
-104
-80
-50
-23
-9
-15
-39
-70
-95
-104
-95
-69
-37
-5
12
13
-5
-34
-56
-66
-64
-50
-32
-15
-13
-29
-59
-95
-120
-126
-115
-89
-56
-24
-5
-4
-20
-42
-56
-55
-37
-10
19
46
57
47
19
-14
-38
-42
-25
3
38
68
82
74
48
12
-18
-29
-20
4
37
67
83
77
50
12
-23
-43
-44
-28
-3
27
50
57
48
26
4
-5
-5
3
18
29
31
14
-15
-50
-74
-83
-70
-44
-9
19
32
22
-12
-56
-99
-129
-139
-132
-116
-94
-76
-68
-73
-79
-80
-71
-51
-27
1
21
28
21
-3
-30
-50
-61
-55
-45
-32
-27
-34
-61
-102
-149
-176
-177
-149
-98
-29
41
101
144
172
199
238
304
404
532
684
843
993
1116
1203
1248
1247
1198
1103
957
768
543
288
22
-234
-453
-611
-695
-708
-661
-570
-461
-354
-267
-201
-157
-122
-90
-59
-33
-10
1
-4
-28
-61
-93
-106
-96
-64
-13
43
93
121
123
98
55
14
-19
-39
-47
-43
-33
-28
-32
-44
-56
-65
-61
-48
-28
-8
8
12
3
-15
-34
-43
-35
-10
21
57
89
109
109
98
80
69
73
88
111
140
165
180
181
170
157
152
160
180
210
242
269
284
282
268
249
241
248
274
313
359
400
431
445
444
435
431
435
446
462
480
495
499
492
478
467
468
485
513
547
578
595
593
568
527
487
458
451
458
475
490
488
465
414
347
278
226
202
212
248
296
333
335
293
203
79
-55
-183
-289
-364
-408
-427
-430
-425
-418
-408
-392
-369
-340
-310
-285
-268
-268
-283
-308
-334
-350
-351
-339
-316
-289
-263
-248
-247
-258
-273
-283
-280
-269
-249
-227
-204
-192
-193
-204
-222
-232
-233
-219
-197
-170
-147
-137
-145
-166
-195
-217
-229
-231
-222
-208
-195
-188
-192
-204
-214
-216
-207
-186
-158
-130
-105
-94
-93
-96
-98
-89
-69
-45
-24
-15
-23
-53
-95
-145
-183
-201
-196
-172
-136
-99
-69
-56
-65
-85
-111
-126
-130
-119
-101
-81
-68
-65
-80
-106
-127
-141
-139
-124
-99
-71
-48
-34
-34
-44
-55
-61
-60
-47
-28
-5
14
23
13
-10
-43
-74
-99
-111
-116
-115
-111
-114
-124
-136
-146
-145
-130
-107
-79
-54
-35
-33
-44
-61
-80
-86
-83
-66
-44
-22
-8
-7
-22
-44
-65
-78
-76
-65
-45
-23
-8
-4
-15
-34
-53
-61
-56
-42
-20
0
14
16
1
-22
-44
-56
-56
-45
-23
3
29
49
60
64
68
74
80
83
78
64
38
0
-48
-95
-132
-147
-146
-125
-95
-64
-39
-29
-34
-49
-65
-71
-66
-53
-33
-13
2
2
-9
-29
-44
-51
-45
-29
-7
14
28
28
16
-5
-24
-32
-29
-14
4
23
34
32
17
-7
-27
-37
-34
-19
2
22
36
38
27
6
-12
-17
-12
6
28
52
70
78
72
58
49
48
58
74
94
110
118
111
93
65
41
27
26
33
43
54
57
47
27
1
-22
-32
-27
-13
4
23
33
29
12
-13
-35
-47
-49
-40
-30
-18
-12
-20
-42
-65
-86
-94
-89
-74
-51
-29
-14
-13
-24
-45
-64
-73
-69
-58
-39
-20
-9
-7
-17
-33
-47
-50
-42
-28
-10
6
13
7
-12
-35
-59
-78
-90
-98
-104
-111
-124
-136
-149
-149
-122
-69
14
124
249
381
509
629
736
837
940
1046
1146
1232
1283
1283
1222
1089
894
652
389
130
-100
-288
-421
-500
-530
-525
-492
-443
-379
-304
-228
-156
-95
-50
-27
-23
-39
-61
-81
-88
-83
-64
-40
-18
-4
-4
-17
-38
-54
-60
-55
-40
-20
0
12
13
4
-10
-22
-25
-17
1
22
41
52
53
42
28
18
16
26
41
59
74
83
78
63
47
38
39
53
75
103
125
140
140
128
109
95
92
99
115
136
157
172
177
171
161
157
164
181
207
240
271
294
308
309
307
310
323
344
373
406
435
453
461
455
445
440
444
458
481
507
533
548
549
539
522
507
499
498
504
512
514
506
483
449
405
364
332
308
289
273
254
227
187
136
83
36
1
-23
-35
-43
-51
-65
-93
-130
-171
-207
-231
-243
-244
-239
-234
-236
-248
-269
-293
-313
-320
-318
-305
-289
-275
-265
-272
-287
-308
-320
-323
-313
-295
-272
-253
-242
-243
-254
-270
-282
-280
-269
-249
-228
-208
-197
-200
-213
-232
-244
-246
-238
-221
-201
-182
-172
-177
-192
-209
-222
-224
-213
-196
-175
-153
-141
-142
-152
-168
-180
-180
-170
-152
-129
-110
-100
-104
-120
-140
-156
-161
-155
-140
-119
-100
-89
-91
-104
-120
-132
-135
-127
-112
-98
-81
-73
-79
-94
-110
-119
-117
-105
-88
-71
-61
-63
-80
-105
-130
-146
-146
-135
-111
-83
-59
-45
-48
-61
-81
-96
-104
-102
-93
-80
-69
-66
-70
-83
-91
-91
-80
-61
-40
-24
-14
-20
-40
-70
-100
-119
-121
-109
-89
-68
-51
-47
-55
-71
-88
-98
-95
-85
-70
-56
-50
-59
-81
-112
-140
-155
-153
-137
-114
-89
-69
-64
-74
-94
-111
-122
-120
-106
-84
-61
-43
-38
-48
-68
-85
-95
-93
-79
-58
-37
-20
-18
-29
-49
-66
-76
-73
-56
-33
-10
7
12
1
-19
-42
-55
-59
-51
-39
-25
-15
-15
-29
-49
-66
-73
-69
-55
-35
-18
-7
-7
-22
-44
-65
-75
-73
-56
-33
-8
14
24
21
8
-4
-7
0
17
37
58
72
72
60
39
19
4
-2
3
13
21
24
17
-2
-27
-50
-60
-60
-47
-29
-12
-2
-4
-20
-44
-68
-81
-83
-73
-58
-43
-32
-33
-45
-63
-83
-91
-91
-81
-66
-49
-39
-37
-47
-63
-74
-78
-69
-51
-29
-9
1
-3
-22
-51
-80
-99
-106
-100
-84
-60
-35
-20
-19
-33
-55
-84
-112
-137
-153
-158
-152
-136
-111
-75
-23
50
146
262
395
538
686
830
963
1080
1180
1257
1302
1307
1257
1151
986
769
516
246
-12
-233
-406
-525
-594
-615
-604
-571
-529
-481
-426
-364
-297
-228
-161
-104
-59
-35
-34
-49
-73
-91
-104
-106
-99
-88
-75
-68
-65
-59
-42
-9
38
93
139
167
167
135
79
11
-53
-98
-116
-107
-80
-47
-17
-4
-13
-35
-59
-71
-69
-45
-5
42
83
104
103
78
44
13
-8
-13
-7
12
38
59
78
92
104
118
133
148
164
181
202
231
262
298
340
383
421
446
451
434
393
332
262
201
164
160
185
235
296
354
398
416
411
389
364
348
345
358
381
415
450
475
490
491
486
480
475
467
461
451
435
410
376
338
300
267
236
208
182
155
124
88
48
8
-22
-42
-49
-51
-55
-65
-88
-125
-175
-232
-282
-314
-325
-318
-298
-275
-259
-257
-268
-288
-308
-319
-321
-315
-303
-292
-284
-288
-301
-320
-333
-331
-316
-293
-264
-239
-223
-223
-237
-255
-269
-272
-260
-242
-218
-198
-188
-191
-207
-228
-247
-254
-248
-228
-198
-168
-147
-139
-149
-171
-197
-218
-229
-229
-223
-211
-202
-198
-203
-209
-209
-198
-175
-145
-111
-84
-70
-76
-98
-125
-151
-165
-166
-153
-126
-91
-56
-30
-20
-27
-44
-66
-86
-107
-124
-136
-150
-163
-175
-176
-163
-140
-110
-80
-56
-42
-42
-58
-86
-119
-144
-153
-149
-131
-106
-79
-60
-53
-58
-69
-78
-81
-76
-70
-60
-50
-47
-50
-64
-81
-95
-99
-94
-81
-66
-55
-58
-76
-115
-152
-181
-191
-182
-155
-114
-69
-30
-7
-3
-15
-34
-55
-71
-81
-88
-93
-99
-111
-122
-129
-125
-110
-86
-60
-39
-24
-27
-44
-70
-95
-107
-104
-85
-55
-24
3
14
9
-13
-39
-58
-60
-51
-30
-8
9
13
4
-17
-40
-51
-45
-23
11
46
72
78
63
31
-9
-39
-55
-51
-33
-7
19
37
37
23
2
-17
-27
-25
-18
-7
6
8
1
-18
-39
-56
-61
-51
-33
-9
16
26
17
-4
-32
-55
-68
-66
-54
-33
-12
1
-2
-20
-47
-70
-84
-85
-75
-60
-44
-32
-28
-34
-39
-40
-34
-24
-13
-4
-2
-9
-28
-54
-79
-89
-84
-68
-47
-27
-19
-33
-68
-117
-165
-197
-204
-182
-134
-63
23
115
210
304
407
528
666
819
977
1131
1269
1375
1431
1427
1364
1247
1082
880
648
400
145
-104
-335
-528
-666
-737
-739
-685
-584
-463
-338
-229
-152
-107
-89
-85
-81
-79
-73
-61
-50
-44
-42
-42
-42
-40
-29
-14
2
13
19
17
9
-2
-7
-2
14
36
55
68
70
60
37
7
-18
-30
-27
-7
26
62
93
106
100
79
53
34
29
42
64
93
118
131
130
116
101
95
99
113
131
150
162
165
156
143
133
133
145
170
199
227
252
264
267
266
267
282
314
359
407
453
483
496
488
470
447
434
434
446
468
495
514
524
518
501
481
470
471
487
511
538
559
564
550
521
485
449
419
395
379
366
350
327
287
238
187
145
114
95
83
75
67
50
26
-8
-42
-70
-91
-107
-120
-131
-145
-166
-191
-219
-242
-253
-254
-246
-237
-236
-246
-269
-305
-348
-382
-402
-402
-380
-348
-309
-277
-254
-249
-257
-268
-275
-274
-262
-247
-227
-212
-204
-208
-214
-221
-218
-206
-186
-166
-153
-150
-163
-190
-222
-247
-257
-248
-223
-186
-140
-93
-54
-27
-15
-15
-24
-39
-60
-88
-116
-149
-182
-217
-246
-260
-257
-233
-195
-152
-112
-85
-78
-90
-116
-140
-152
-147
-127
-96
-66
-40
-30
-39
-58
-81
-94
-93
-78
-51
-22
1
11
3
-18
-40
-55
-55
-44
-25
-7
3
0
-23
-56
-90
-114
-121
-114
-94
-68
-42
-24
-24
-33
-48
-60
-64
-63
-55
-48
-44
-50
-65
-85
-102
-107
-98
-76
-47
-18
3
8
-4
-29
-54
-71
-76
-71
-56
-42
-29
-28
-37
-53
-66
-68
-56
-35
-8
18
33
32
13
-18
-48
-64
-65
-49
-27
1
22
32
26
6
-17
-33
-40
-39
-30
-23
-20
-29
-49
-73
-93
-98
-88
-64
-33
0
22
28
19
-4
-25
-38
-37
-25
-7
14
27
26
11
-14
-37
-44
-38
-17
12
41
63
68
57
32
18
17
29
52
78
99
108
100
77
46
22
13
21
41
68
94
109
105
79
46
9
-12
-22
-17
-2
14
27
27
16
-4
-20
-29
-28
-18
-5
6
11
2
-19
-38
-50
-45
-27
0
27
43
41
17
-22
-66
-100
-115
-109
-85
-53
-20
1
6
-5
-25
-40
-43
-30
-9
16
39
50
43
22
-5
-29
-42
-42
-33
-23
-17
-25
-54
-96
-144
-177
-188
-173
-135
-75
0
79
159
241
329
431
552
687
834
982
1121
1238
1318
1353
1338
1276
1166
1016
828
606
366
118
-125
-343
-514
-622
-661
-637
-564
-461
-350
-250
-180
-136
-117
-110
-104
-93
-76
-58
-40
-29
-30
-40
-50
-55
-47
-30
-8
16
32
37
22
-4
-34
-54
-58
-43
-15
19
52
72
74
60
37
18
13
19
36
60
87
106
114
109
98
87
83
88
95
106
114
115
104
84
64
57
64
85
116
151
180
195
192
175
151
135
133
145
169
196
223
242
245
236
226
223
236
262
298
338
374
399
407
404
396
395
404
426
456
486
512
524
521
502
480
465
463
473
497
519
543
553
544
521
492
466
447
437
434
429
417
395
354
302
246
196
160
138
124
114
103
80
44
-3
-51
-90
-115
-126
-126
-122
-119
-124
-144
-171
-202
-223
-232
-228
-214
-202
-196
-202
-222
-252
-278
-290
-287
-270
-249
-233
-227
-241
-272
-316
-359
-386
-395
-384
-359
-325
-293
-270
-265
-272
-280
-283
-272
-249
-218
-186
-160
-147
-153
-172
-195
-208
-207
-191
-166
-136
-111
-101
-107
-130
-158
-182
-195
-195
-187
-173
-162
-156
-166
-180
-193
-195
-182
-158
-127
-95
-73
-66
-79
-105
-135
-156
-163
-155
-135
-110
-89
-76
-81
-95
-111
-121
-120
-105
-84
-60
-45
-40
-53
-78
-102
-117
-117
-102
-78
-49
-24
-18
-27
-50
-78
-96
-100
-86
-65
-38
-17
-9
-22
-50
-81
-106
-116
-112
-99
-79
-64
-60
-71
-94
-116
-130
-129
-111
-84
-53
-28
-15
-23
-48
-75
-98
-107
-104
-89
-68
-50
-47
-55
-76
-100
-115
-116
-105
-85
-60
-40
-30
-35
-53
-70
-79
-75
-60
-42
-22
-9
-8
-23
-47
-68
-79
-76
-61
-40
-19
-4
-4
-20
-45
-73
-86
-84
-65
-37
-2
28
46
46
31
13
0
0
11
32
54
73
79
69
47
19
0
-7
-5
4
14
22
18
0
-27
-53
-69
-71
-63
-45
-30
-19
-23
-43
-74
-106
-129
-136
-127
-110
-88
-66
-59
-64
-83
-101
-111
-109
-93
-69
-39
-15
-4
-10
-29
-53
-70
-76
-73
-61
-44
-34
-33
-45
-66
-86
-95
-94
-78
-56
-38
-32
-43
-78
-135
-191
-226
-236
-222
-183
-126
-58
17
95
182
287
411
553
710
870
1026
1164
1272
1337
1356
1330
1256
1135
971
767
534
283
26
-218
-431
-588
-680
-702
-670
-593
-494
-394
-308
-242
-197
-166
-139
-112
-90
-68
-53
-48
-59
-84
-112
-134
-136
-122
-93
-56
-23
0
4
-8
-28
-44
-47
-33
-10
14
36
43
31
1
-37
-70
-90
-91
-80
-58
-33
-12
-5
-12
-27
-38
-39
-28
-7
21
48
69
75
67
49
36
33
42
62
85
109
125
125
111
89
72
69
82
109
144
180
208
223
226
218
218
230
253
287
324
359
381
385
373
349
330
328
344
374
412
453
485
498
493
480
467
463
470
487
506
522
526
514
486
449
415
393
386
386
393
395
380
347
293
228
167
121
90
74
68
64
53
28
-12
-56
-100
-130
-145
-151
-151
-153
-166
-195
-236
-282
-320
-344
-346
-334
-310
-285
-267
-264
-275
-300
-320
-333
-331
-319
-300
-279
-267
-268
-283
-305
-324
-333
-329
-316
-298
-279
-268
-269
-280
-299
-311
-311
-295
-265
-229
-195
-171
-167
-183
-211
-238
-255
-260
-255
-239
-224
-213
-213
-226
-241
-250
-247
-229
-203
-173
-146
-129
-127
-141
-162
-177
-185
-176
-158
-136
-112
-98
-98
-110
-127
-142
-144
-134
-115
-91
-71
-60
-63
-79
-101
-117
-127
-127
-120
-111
-106
-109
-121
-145
-171
-187
-190
-176
-151
-119
-91
-71
-70
-84
-105
-122
-126
-120
-102
-81
-60
-48
-49
-64
-86
-104
-111
-109
-98
-83
-70
-66
-75
-96
-119
-137
-141
-129
-106
-78
-51
-37
-39
-58
-85
-109
-121
-119
-106
-86
-68
-56
-59
-75
-98
-115
-120
-110
-90
-65
-42
-29
-33
-53
-76
-95
-101
-94
-76
-50
-27
-12
-12
-27
-48
-64
-71
-66
-54
-37
-23
-18
-27
-49
-76
-98
-107
-105
-90
-70
-51
-42
-44
-59
-79
-90
-88
-71
-47
-14
13
27
24
6
-18
-34
-38
-24
0
31
58
75
75
59
33
13
4
11
27
47
63
68
55
26
-9
-42
-60
-64
-55
-39
-20
-10
-10
-24
-43
-56
-59
-51
-39
-25
-18
-24
-45
-78
-114
-137
-145
-134
-111
-80
-53
-39
-40
-56
-76
-91
-94
-84
-66
-45
-29
-23
-33
-55
-76
-89
-84
-65
-40
-14
3
7
-9
-40
-73
-101
-115
-117
-114
-107
-109
-124
-151
-186
-213
-219
-197
-142
-61
39
150
262
364
458
554
659
779
911
1044
1165
1253
1292
1264
1166
1007
802
568
324
83
-136
-323
-468
-569
-625
-635
-598
-522
-422
-314
-213
-131
-78
-55
-61
-80
-100
-111
-110
-99
-83
-68
-61
-68
-83
-101
-111
-106
-88
-59
-27
0
14
9
-7
-37
-58
-60
-49
-30
-8
9
13
6
-10
-24
-29
-18
4
32
58
75
77
62
36
9
-5
-5
12
36
65
90
101
99
83
67
58
62
78
101
128
150
161
156
145
135
134
150
175
206
238
262
272
264
251
240
241
259
291
329
370
402
417
416
401
390
388
399
425
458
492
518
531
523
506
483
470
467
476
490
504
511
504
481
447
412
384
365
353
343
332
309
272
222
165
110
72
48
38
34
29
12
-22
-73
-132
-188
-228
-252
-257
-250
-239
-232
-239
-262
-294
-326
-348
-355
-348
-329
-300
-272
-253
-247
-254
-267
-277
-282
-280
-280
-278
-282
-297
-323
-352
-379
-389
-385
-367
-344
-316
-295
-285
-292
-305
-316
-320
-310
-290
-267
-242
-223
-218
-227
-243
-258
-260
-252
-232
-207
-185
-170
-168
-183
-206
-222
-229
-219
-200
-172
-147
-131
-129
-141
-163
-183
-191
-183
-167
-144
-120
-105
-102
-116
-139
-160
-171
-171
-161
-145
-126
-114
-115
-129
-147
-163
-167
-158
-139
-111
-85
-68
-64
-73
-91
-110
-117
-107
-85
-55
-27
-10
-13
-39
-78
-119
-150
-165
-166
-155
-135
-119
-112
-121
-135
-150
-155
-147
-131
-109
-88
-74
-74
-88
-107
-125
-130
-119
-99
-70
-47
-32
-37
-56
-89
-120
-136
-135
-116
-86
-54
-28
-18
-28
-53
-80
-101
-112
-111
-104
-91
-81
-76
-78
-81
-79
-69
-53
-34
-20
-13
-17
-38
-73
-111
-141
-156
-150
-127
-94
-59
-33
-24
-35
-56
-79
-91
-93
-81
-64
-43
-28
-25
-37
-54
-68
-73
-66
-53
-34
-18
-8
-15
-30
-50
-63
-59
-42
-14
19
47
62
58
39
11
-9
-17
-5
18
50
80
99
98
77
42
4
-24
-43
-47
-44
-34
-30
-34
-49
-69
-84
-88
-79
-64
-45
-32
-29
-43
-71
-104
-131
-141
-136
-115
-85
-54
-33
-24
-34
-56
-79
-94
-98
-91
-78
-63
-51
-50
-59
-75
-86
-89
-81
-68
-50
-37
-32
-43
-64
-89
-107
-111
-101
-86
-71
-68
-80
-114
-162
-209
-241
-238
-201
-126
-24
98
226
351
468
580
695
819
951
1087
1212
1312
1368
1363
1286
1145
953
727
485
240
6
-202
-376
-515
-612
-665
-666
-621
-542
-442
-339
-249
-181
-144
-131
-137
-146
-149
-137
-114
-84
-53
-30
-29
-43
-70
-96
-112
-116
-107
-90
-69
-55
-51
-59
-71
-81
-76
-59
-33
0
27
42
38
16
-15
-44
-59
-56
-43
-18
7
26
31
22
6
-7
-9
2
23
48
73
89
90
79
62
47
44
55
77
101
125
140
140
125
105
90
88
99
121
149
177
197
206
202
197
197
212
241
278
318
353
374
379
369
353
344
350
371
405
440
475
496
501
490
470
450
437
436
439
445
451
444
422
391
356
328
310
307
307
308
303
284
246
196
138
88
52
31
19
13
6
-12
-45
-91
-137
-173
-198
-206
-203
-197
-192
-198
-221
-254
-290
-319
-331
-329
-315
-294
-273
-262
-263
-273
-289
-297
-295
-285
-268
-250
-241
-241
-257
-284
-314
-334
-339
-329
-305
-279
-254
-239
-241
-253
-268
-278
-274
-259
-236
-209
-187
-177
-181
-198
-219
-232
-231
-217
-192
-163
-140
-130
-135
-153
-177
-191
-192
-181
-158
-132
-110
-95
-95
-106
-121
-131
-131
-122
-107
-94
-85
-85
-100
-125
-150
-166
-168
-158
-139
-116
-99
-90
-96
-114
-132
-147
-146
-135
-114
-90
-69
-60
-65
-83
-104
-120
-124
-116
-101
-84
-70
-64
-74
-91
-111
-122
-120
-107
-85
-61
-43
-37
-48
-71
-99
-119
-126
-122
-107
-90
-73
-64
-70
-88
-107
-120
-121
-111
-90
-66
-44
-33
-40
-59
-86
-109
-120
-117
-106
-93
-78
-71
-79
-94
-111
-121
-120
-107
-88
-65
-48
-42
-48
-65
-84
-95
-91
-76
-53
-27
-4
6
0
-20
-44
-64
-71
-70
-60
-44
-29
-23
-27
-38
-51
-56
-54
-40
-22
0
18
27
26
14
2
-4
-4
3
12
19
21
12
-10
-40
-69
-88
-91
-84
-66
-43
-24
-13
-15
-29
-47
-61
-66
-66
-60
-51
-50
-55
-74
-100
-126
-144
-150
-141
-124
-101
-81
-70
-70
-83
-95
-101
-99
-88
-70
-51
-38
-33
-42
-59
-76
-86
-86
-76
-58
-40
-28
-27
-42
-73
-107
-142
-171
-191
-200
-197
-186
-162
-130
-83
-14
82
203
347
499
656
808
946
1067
1167
1249
1308
1333
1313
1237
1103
909
664
385
94
-177
-405
-570
-667
-700
-677
-617
-538
-457
-379
-310
-248
-190
-142
-104
-75
-60
-60
-74
-95
-112
-121
-115
-96
-70
-42
-18
-7
-9
-23
-40
-50
-53
-47
-33
-17
-4
2
-2
-13
-25
-32
-27
-15
2
18
31
33
27
9
-5
-12
-7
11
33
58
80
90
87
73
58
48
48
58
74
94
110
119
119
109
100
98
108
124
146
172
196
212
217
217
213
217
228
248
271
294
315
325
328
323
317
320
334
356
384
414
437
455
460
457
453
457
467
483
502
521
531
529
516
493
468
451
442
441
445
446
439
419
385
339
293
249
218
195
179
164
144
114
74
26
-22
-61
-88
-102
-107
-111
-117
-132
-157
-190
-222
-248
-262
-268
-265
-262
-262
-270
-289
-313
-336
-348
-349
-340
-325
-308
-295
-292
-299
-314
-328
-335
-331
-318
-298
-275
-259
-250
-254
-265
-278
-282
-277
-263
-242
-221
-203
-196
-202
-216
-231
-237
-233
-211
-188
-171
-161
-162
-175
-188
-200
-200
-192
-180
-165
-150
-144
-145
-156
-167
-175
-171
-161
-146
-130
-116
-112
-120
-134
-150
-158
-157
-145
-127
-109
-93
-86
-91
-109
-124
-135
-135
-124
-107
-88
-73
-69
-75
-93
-112
-127
-131
-124
-110
-93
-76
-71
-76
-93
-110
-124
-126
-121
-110
-95
-83
-81
-88
-101
-120
-130
-130
-120
-104
-85
-70
-63
-70
-84
-100
-112
-114
-107
-94
-79
-65
-61
-66
-80
-94
-102
-100
-90
-75
-60
-48
-44
-53
-69
-88
-96
-96
-84
-65
-47
-33
-28
-38
-56
-78
-91
-96
-89
-74
-53
-34
-23
-27
-38
-54
-65
-70
-65
-54
-42
-32
-29
-37
-51
-66
-74
-71
-59
-39
-17
4
17
21
14
4
-2
-2
6
17
29
38
38
31
17
4
1
8
24
46
65
77
75
59
32
0
-27
-42
-45
-39
-30
-20
-17
-22
-35
-49
-56
-58
-50
-39
-25
-18
-17
-25
-42
-60
-71
-76
-74
-68
-60
-58
-64
-81
-106
-131
-145
-145
-129
-107
-81
-59
-50
-53
-66
-84
-93
-91
-78
-58
-37
-20
-17
-28
-51
-73
-89
-96
-94
-89
-88
-95
-112
-140
-171
-191
-188
-157
-94
-7
103
222
343
455
560
664
774
893
1013
1129
1221
1274
1267
1190
1044
847
616
370
130
-90
-277
-421
-520
-578
-595
-576
-522
-442
-348
-253
-167
-100
-58
-42
-45
-58
-68
-69
-59
-45
-32
-22
-24
-39
-65
-91
-106
-106
-90
-64
-32
-4
11
11
-3
-22
-34
-33
-22
-4
17
32
37
29
17
9
17
43
79
116
145
157
145
106
50
-2
-40
-55
-44
-13
28
70
98
104
93
73
54
48
53
70
93
116
131
136
133
128
133
148
174
205
236
262
278
279
273
272
286
315
359
406
449
475
477
456
419
380
351
344
354
381
414
446
465
470
458
444
436
437
450
468
487
498
493
475
439
400
368
344
328
320
315
303
279
240
190
138
93
63
44
34
26
12
-13
-54
-106
-158
-201
-227
-239
-238
-229
-223
-223
-238
-262
-287
-303
-306
-303
-289
-273
-262
-262
-275
-299
-320
-330
-326
-308
-284
-258
-237
-231
-238
-257
-275
-285
-278
-260
-234
-204
-181
-170
-175
-192
-213
-228
-232
-228
-216
-200
-187
-183
-193
-211
-228
-236
-233
-214
-190
-162
-142
-131
-136
-150
-167
-176
-175
-165
-147
-131
-119
-117
-129
-151
-170
-177
-172
-152
-127
-100
-80
-73
-79
-95
-110
-116
-109
-94
-75
-61
-56
-66
-91
-125
-157
-176
-178
-165
-141
-111
-88
-76
-80
-98
-117
-129
-129
-116
-98
-76
-60
-58
-69
-93
-117
-132
-134
-121
-101
-80
-63
-60
-69
-89
-109
-120
-112
-91
-65
-37
-15
-10
-20
-42
-63
-76
-81
-76
-68
-56
-51
-58
-74
-94
-105
-106
-95
-71
-44
-19
-3
0
-13
-34
-50
-54
-43
-19
13
46
68
75
63
39
16
0
-2
8
27
48
62
64
50
29
6
-10
-18
-15
-5
9
24
37
38
32
26
17
11
3
-5
-17
-35
-61
-95
-130
-157
-167
-162
-142
-115
-86
-65
-58
-69
-90
-111
-126
-129
-122
-109
-91
-79
-79
-88
-104
-115
-116
-107
-89
-68
-48
-33
-33
-45
-64
-78
-83
-75
-59
-40
-25
-23
-38
-74
-121
-168
-206
-228
-234
-221
-191
-149
-95
-33
43
140
262
404
559
720
880
1027
1154
1251
1317
1354
1354
1309
1216
1069
874
639
373
97
-163
-385
-548
-645
-680
-661
-605
-528
-446
-374
-310
-252
-197
-146
-102
-65
-40
-32
-37
-56
-81
-99
-102
-94
-71
-44
-17
1
2
-8
-28
-44
-51
-47
-30
-9
14
28
31
19
3
-9
-13
-4
13
36
55
67
65
50
31
13
8
14
31
53
75
90
93
85
72
62
63
74
94
118
140
154
156
148
135
128
129
144
166
194
218
236
242
235
223
217
221
237
263
296
325
348
358
356
348
345
350
370
396
429
458
481
491
486
475
467
467
476
491
508
523
529
522
501
475
450
435
430
431
431
430
417
390
347
297
249
212
189
171
159
146
125
94
50
2
-42
-74
-95
-105
-110
-112
-122
-141
-170
-200
-223
-233
-232
-221
-207
-195
-192
-201
-222
-248
-267
-277
-273
-259
-242
-224
-214
-216
-228
-246
-255
-254
-242
-221
-196
-175
-160
-158
-171
-186
-200
-203
-196
-178
-157
-137
-126
-126
-139
-155
-165
-165
-153
-132
-109
-89
-75
-75
-88
-104
-115
-116
-106
-88
-66
-47
-37
-40
-55
-79
-94
-98
-90
-70
-48
-25
-13
-14
-27
-48
-63
-66
-58
-39
-15
4
17
13
-3
-24
-43
-48
-43
-28
-8
11
21
18
2
-19
-35
-42
-37
-23
-4
12
22
17
1
-19
-35
-40
-33
-17
3
22
32
27
9
-13
-29
-34
-25
-8
13
34
46
46
31
12
-3
-9
-5
9
28
46
54
50
38
18
4
2
12
31
54
77
93
94
83
65
52
47
52
65
85
104
115
116
105
89
79
77
87
105
128
148
160
160
150
135
124
124
130
141
152
159
155
139
113
83
60
53
55
68
87
104
115
111
97
77
58
50
52
59
69
77
75
64
43
19
3
0
9
24
47
67
75
73
58
38
24
23
33
54
78
100
111
108
93
70
53
48
52
65
85
104
113
109
88
59
28
2
-19
-35
-37
-30
-17
2
32
80
155
253
373
507
645
781
906
1017
1114
1201
1278
1344
1378
1369
1307
1184
998
761
491
216
-33
-233
-371
-445
-459
-428
-370
-298
-228
-160
-94
-30
24
73
108
128
130
115
88
62
43
42
53
73
98
119
130
126
114
97
87
88
100
118
139
155
161
152
135
118
109
111
126
148
172
192
200
194
176
157
146
145
156
176
197
215
222
218
203
189
180
184
199
220
245
264
274
269
257
245
240
247
267
294
328
356
376
380
374
364
360
365
378
399
420
441
453
456
452
452
461
482
512
547
582
606
619
614
601
587
579
584
600
624
646
662
669
659
639
618
603
598
600
605
606
598
575
536
486
434
394
369
356
355
349
338
310
263
201
135
78
33
3
-13
-22
-29
-44
-66
-96
-125
-146
-151
-146
-132
-119
-109
-110
-126
-153
-181
-202
-209
-203
-190
-168
-151
-142
-146
-157
-170
-177
-175
-161
-144
-126
-112
-110
-119
-137
-153
-162
-158
-146
-125
-104
-85
-76
-83
-98
-112
-120
-116
-100
-78
-55
-35
-29
-37
-53
-71
-84
-84
-74
-58
-39
-23
-18
-25
-40
-55
-64
-60
-47
-28
-5
9
16
8
-9
-27
-35
-34
-22
-5
12
23
22
9
-13
-34
-47
-47
-34
-13
9
28
34
28
9
-9
-22
-23
-13
2
21
33
36
26
4
-15
-29
-30
-19
-3
16
29
32
22
3
-15
-27
-25
-13
4
24
38
42
32
14
-4
-15
-13
-3
16
36
50
54
44
26
6
-2
0
13
32
55
73
82
75
62
46
38
43
59
79
100
118
121
111
94
79
72
77
93
114
138
151
152
135
106
77
53
41
41
50
62
70
70
58
37
16
3
1
9
22
36
44
43
27
2
-20
-35
-39
-32
-15
1
12
12
1
-18
-37
-45
-44
-30
-12
8
21
24
14
-4
-22
-32
-30
-19
0
19
32
37
28
9
-10
-20
-24
-19
-12
-8
-17
-40
-78
-120
-153
-166
-152
-107
-38
50
151
256
358
457
560
674
798
930
1063
1182
1277
1328
1318
1248
1119
945
737
508
271
42
-165
-339
-472
-555
-585
-561
-496
-400
-294
-192
-107
-50
-25
-23
-32
-42
-47
-42
-32
-18
-8
-5
-13
-29
-43
-48
-43
-27
-5
16
33
37
27
7
-10
-20
-18
-5
13
34
52
58
49
33
17
7
9
22
41
60
75
80
73
55
41
34
41
57
79
103
121
129
123
109
95
88
93
109
133
157
179
187
185
172
161
159
169
190
216
247
269
284
284
276
269
272
287
318
358
389
412
421
417
409
406
410
430
455
483
512
529
534
524
507
495
488
493
506
519
529
528
512
482
444
407
380
361
351
342
330
308
273
225
171
123
85
60
46
36
26
7
-24
-66
-111
-150
-175
-188
-188
-183
-177
-178
-193
-218
-248
-272
-287
-287
-279
-264
-250
-244
-252
-270
-292
-308
-313
-305
-289
-269
-249
-239
-243
-255
-275
-288
-290
-282
-262
-238
-214
-202
-201
-213
-231
-244
-247
-238
-219
-197
-176
-163
-163
-178
-198
-212
-214
-204
-187
-163
-144
-132
-134
-147
-167
-182
-186
-180
-162
-142
-122
-112
-114
-127
-146
-161
-165
-157
-140
-120
-102
-93
-96
-114
-134
-149
-152
-145
-127
-107
-86
-75
-76
-93
-111
-127
-131
-126
-114
-95
-80
-73
-80
-96
-119
-135
-140
-132
-116
-96
-79
-68
-73
-90
-112
-130
-136
-131
-119
-100
-84
-74
-78
-94
-114
-127
-131
-122
-106
-84
-66
-56
-60
-76
-96
-110
-111
-101
-79
-51
-27
-10
-8
-19
-35
-49
-50
-44
-28
-10
6
16
12
-3
-19
-30
-32
-23
-8
6
14
13
-2
-30
-60
-85
-96
-96
-83
-66
-51
-43
-49
-66
-88
-106
-112
-110
-98
-84
-71
-69
-79
-99
-125
-142
-147
-141
-126
-106
-89
-81
-86
-102
-122
-137
-140
-131
-112
-90
-69
-58
-60
-76
-98
-112
-117
-110
-95
-76
-59
-51
-59
-80
-106
-132
-155
-171
-185
-196
-208
-221
-234
-241
-228
-187
-111
-4
130
281
434
583
716
838
950
1058
1157
1242
1297
1303
1249
1126
936
689
414
136
-114
-323
-481
-584
-637
-652
-637
-605
-555
-491
-417
-338
-259
-191
-140
-109
-101
-114
-134
-150
-155
-149
-130
-106
-84
-69
-69
-83
-98
-111
-111
-102
-85
-64
-44
-33
-38
-54
-73
-85
-85
-73
-54
-29
-7
4
1
-15
-35
-49
-51
-42
-24
-3
17
26
23
8
-9
-20
-22
-8
14
38
60
74
73
60
46
37
39
53
78
105
129
145
148
138
124
115
120
138
164
195
223
243
252
248
240
238
248
269
298
330
359
379
386
379
369
364
370
386
407
432
452
460
456
437
414
395
386
388
394
402
405
394
368
324
276
231
196
171
157
145
133
109
75
29
-20
-61
-91
-107
-116
-120
-125
-139
-163
-201
-238
-269
-288
-290
-285
-275
-265
-265
-278
-301
-326
-345
-351
-348
-333
-315
-300
-292
-298
-313
-331
-345
-346
-336
-320
-300
-283
-275
-279
-297
-315
-329
-329
-316
-295
-272
-248
-236
-237
-250
-268
-278
-278
-268
-248
-226
-207
-197
-201
-216
-234
-246
-246
-233
-212
-188
-167
-157
-161
-176
-195
-208
-211
-201
-182
-162
-144
-135
-140
-157
-177
-190
-192
-183
-165
-141
-126
-120
-129
-149
-170
-185
-190
-182
-167
-149
-132
-127
-136
-155
-173
-186
-185
-175
-156
-136
-120
-115
-124
-144
-163
-177
-178
-168
-151
-131
-116
-112
-122
-142
-161
-173
-173
-163
-144
-124
-106
-101
-110
-130
-150
-161
-160
-147
-129
-107
-93
-86
-94
-109
-126
-132
-130
-112
-90
-63
-42
-30
-35
-50
-66
-76
-75
-61
-40
-17
3
9
1
-20
-45
-66
-78
-80
-75
-65
-61
-66
-84
-109
-134
-150
-151
-141
-125
-107
-95
-95
-109
-131
-156
-172
-176
-168
-152
-135
-120
-115
-122
-141
-160
-171
-170
-158
-140
-120
-105
-101
-109
-125
-141
-151
-147
-135
-116
-95
-81
-80
-91
-112
-134
-146
-145
-134
-117
-101
-93
-102
-130
-175
-221
-258
-278
-275
-249
-203
-140
-68
9
92
186
296
421
560
706
853
990
1104
1189
1231
1230
1184
1092
951
767
547
302
46
-203
-418
-583
-681
-708
-678
-601
-499
-394
-299
-231
-185
-160
-142
-127
-112
-96
-83
-75
-78
-91
-112
-132
-141
-137
-121
-100
-76
-58
-50
-58
-74
-91
-101
-100
-86
-66
-45
-29
-23
-30
-48
-63
-71
-68
-54
-32
-9
8
13
7
-9
-28
-37
-34
-20
0
22
38
47
39
23
8
3
9
27
50
78
98
108
101
89
75
73
83
104
131
162
189
203
206
199
191
194
207
231
264
298
327
344
347
340
334
335
349
370
399
429
453
465
463
451
436
430
432
444
461
476
485
481
462
432
400
374
355
345
339
332
317
289
246
192
140
95
62
41
28
14
-2
-27
-65
-110
-155
-188
-211
-218
-219
-216
-218
-229
-253
-283
-311
-330
-336
-331
-318
-301
-292
-290
-303
-324
-345
-355
-354
-343
-325
-304
-289
-285
-293
-310
-325
-331
-328
-310
-288
-265
-246
-241
-247
-262
-279
-287
-284
-272
-252
-231
-214
-208
-216
-232
-247
-252
-247
-231
-207
-185
-167
-162
-172
-190
-208
-218
-216
-204
-186
-163
-146
-141
-150
-168
-185
-195
-192
-180
-163
-145
-132
-132
-144
-165
-183
-192
-188
-176
-155
-135
-120
-119
-132
-152
-171
-181
-178
-163
-142
-122
-107
-106
-116
-136
-155
-165
-162
-149
-127
-107
-93
-89
-104
-127
-151
-167
-172
-166
-151
-134
-119
-114
-121
-137
-152
-161
-156
-140
-114
-89
-68
-61
-74
-102
-136
-165
-182
-186
-178
-162
-144
-134
-131
-136
-141
-137
-126
-106
-81
-59
-42
-35
-40
-53
-65
-68
-60
-43
-22
0
13
14
1
-20
-39
-47
-42
-24
-2
18
33
31
13
-18
-48
-68
-78
-75
-64
-48
-34
-32
-39
-56
-76
-89
-91
-85
-74
-61
-54
-58
-73
-95
-117
-130
-131
-124
-111
-96
-88
-89
-102
-121
-139
-147
-142
-129
-105
-83
-74
-76
-90
-109
-124
-127
-122
-109
-88
-71
-63
-65
-79
-94
-107
-111
-105
-95
-86
-84
-98
-126
-170
-217
-253
-267
-255
-217
-155
-75
16
110
203
304
415
539
680
829
977
1114
1222
1284
1289
1235
1124
967
772
550
314
82
-135
-321
-467
-559
-591
-568
-502
-408
-306
-212
-136
-91
-76
-83
-98
-112
-117
-115
-106
-94
-85
-85
-94
-106
-114
-112
-100
-79
-56
-35
-25
-29
-42
-60
-75
-79
-69
-51
-29
-7
7
9
0
-15
-27
-27
-17
2
26
48
65
68
60
46
36
33
43
60
82
103
114
111
98
78
60
54
60
77
98
120
134
138
134
123
118
121
136
160
189
216
235
241
238
231
228
241
264
297
334
368
393
405
406
400
399
407
427
453
483
509
528
533
526
512
501
496
502
512
523
533
532
517
487
451
415
386
365
351
340
327
304
268
221
170
123
84
59
43
31
18
0
-30
-70
-112
-150
-175
-187
-190
-183
-180
-182
-196
-222
-253
-282
-298
-301
-297
-285
-274
-269
-274
-289
-309
-324
-328
-320
-304
-285
-264
-254
-257
-268
-287
-298
-300
-293
-275
-255
-234
-222
-222
-232
-246
-255
-254
-244
-226
-204
-187
-176
-178
-192
-208
-221
-222
-213
-196
-173
-150
-137
-134
-145
-161
-172
-176
-168
-155
-135
-116
-105
-106
-117
-134
-147
-151
-145
-131
-112
-96
-86
-89
-101
-119
-131
-136
-129
-116
-99
-85
-81
-86
-100
-119
-131
-135
-126
-107
-88
-70
-59
-63
-79
-99
-115
-121
-117
-105
-89
-73
-66
-70
-84
-102
-116
-117
-110
-95
-76
-59
-51
-56
-74
-94
-111
-116
-110
-96
-79
-64
-56
-60
-74
-95
-107
-111
-106
-90
-71
-54
-43
-47
-59
-76
-90
-93
-85
-68
-47
-27
-14
-13
-20
-34
-43
-44
-37
-23
-5
8
17
12
0
-17
-25
-24
-13
4
22
34
37
23
-2
-29
-51
-63
-60
-48
-32
-15
-8
-13
-29
-50
-64
-70
-68
-58
-45
-35
-35
-47
-69
-95
-114
-121
-116
-101
-83
-64
-54
-58
-71
-90
-104
-106
-99
-81
-61
-44
-34
-38
-53
-71
-84
-86
-78
-60
-39
-22
-13
-18
-37
-60
-80
-94
-100
-105
-111
-126
-150
-185
-219
-244
-242
-207
-136
-34
89
226
363
493
613
731
853
981
1110
1230
1327
1380
1374
1299
1151
946
702
445
191
-42
-241
-399
-515
-594
-632
-634
-598
-532
-443
-349
-259
-183
-130
-104
-100
-110
-120
-122
-119
-106
-89
-71
-61
-64
-75
-89
-100
-99
-89
-69
-47
-27
-15
-18
-32
-48
-60
-61
-51
-35
-14
4
16
14
1
-15
-25
-27
-14
4
27
46
57
54
39
19
6
2
11
27
48
68
77
72
59
46
39
47
65
90
118
143
156
157
150
140
138
146
166
194
223
249
266
267
261
251
248
259
281
309
342
370
390
396
393
385
384
393
411
436
461
481
490
483
466
447
431
426
431
441
452
456
450
427
393
354
322
297
282
272
259
243
215
175
125
74
32
2
-15
-27
-32
-42
-59
-88
-125
-163
-193
-211
-216
-214
-208
-204
-208
-224
-249
-275
-293
-299
-294
-280
-264
-252
-247
-255
-272
-290
-301
-301
-290
-275
-255
-241
-236
-241
-255
-272
-280
-275
-260
-238
-213
-192
-182
-186
-200
-214
-224
-222
-211
-193
-175
-160
-156
-163
-180
-197
-206
-204
-192
-171
-149
-131
-122
-129
-144
-158
-167
-166
-155
-136
-117
-101
-96
-105
-122
-140
-150
-150
-136
-117
-96
-80
-71
-78
-94
-111
-120
-119
-106
-91
-73
-59
-56
-68
-86
-107
-120
-121
-110
-93
-73
-56
-51
-56
-73
-90
-100
-100
-89
-73
-55
-42
-37
-44
-60
-79
-90
-89
-79
-64
-45
-32
-28
-37
-55
-74
-86
-88
-76
-60
-40
-27
-22
-28
-44
-60
-69
-68
-55
-37
-15
2
9
6
-5
-18
-22
-17
0
21
43
58
64
58
41
26
18
22
37
58
78
92
92
77
49
21
-2
-13
-12
-3
9
21
24
16
-3
-24
-37
-39
-34
-22
-10
-2
-5
-18
-42
-64
-80
-84
-75
-59
-39
-24
-17
-23
-38
-53
-61
-60
-48
-32
-10
4
9
3
-10
-28
-35
-34
-24
-5
12
26
28
21
3
-15
-25
-28
-23
-18
-17
-28
-51
-90
-134
-166
-178
-158
-107
-29
72
186
303
416
527
638
758
889
1023
1157
1276
1364
1402
1378
1287
1138
944
716
472
230
3
-193
-350
-466
-532
-547
-513
-441
-345
-242
-142
-61
-7
17
21
11
1
-3
0
11
24
36
39
33
18
4
0
6
21
42
63
80
85
77
60
43
34
37
50
69
92
109
116
109
94
78
69
73
85
105
125
143
148
143
128
114
108
111
126
146
169
187
196
191
179
166
162
169
185
208
237
259
273
273
264
257
257
266
283
307
334
355
370
373
368
363
368
381
405
436
467
495
512
517
513
507
512
524
544
570
594
611
618
609
590
570
557
555
560
570
580
584
574
548
513
476
445
419
402
391
375
356
327
282
231
179
138
106
88
75
67
54
32
0
-39
-76
-105
-121
-126
-124
-119
-116
-125
-144
-170
-193
-209
-214
-209
-198
-186
-175
-173
-181
-196
-211
-217
-212
-197
-177
-156
-140
-137
-144
-158
-172
-181
-177
-163
-146
-125
-107
-101
-107
-121
-135
-141
-136
-122
-104
-81
-64
-64
-74
-89
-102
-105
-98
-81
-61
-43
-30
-29
-39
-56
-69
-71
-66
-50
-29
-10
2
3
-9
-28
-43
-50
-44
-32
-12
6
17
17
4
-14
-30
-38
-34
-22
-4
12
22
19
6
-14
-32
-38
-33
-20
-4
13
22
19
7
-13
-28
-32
-29
-15
2
19
28
26
12
-8
-23
-32
-25
-12
4
22
32
31
17
0
-17
-22
-17
-3
13
31
39
39
24
4
-12
-19
-15
-4
12
27
37
33
21
2
-13
-18
-12
3
23
42
52
50
39
21
7
2
8
26
46
65
79
82
72
58
48
48
58
77
98
119
130
129
115
94
80
74
82
100
121
141
152
148
129
101
75
58
52
54
63
73
78
73
57
36
19
12
16
28
41
54
57
49
28
1
-22
-34
-35
-28
-14
0
7
4
-9
-25
-39
-42
-34
-19
1
18
28
26
12
-8
-24
-29
-24
-9
9
27
39
38
26
8
-5
-12
-5
4
16
21
12
-15
-59
-107
-149
-170
-166
-135
-80
-8
77
165
253
347
450
564
691
828
966
1095
1205
1277
1299
1271
1189
1059
890
686
461
228
3
-201
-367
-482
-538
-534
-481
-392
-290
-190
-104
-47
-15
-8
-10
-15
-15
-12
-3
6
11
4
-9
-25
-37
-37
-27
-9
13
32
46
44
33
16
2
-2
7
21
42
60
70
70
59
43
31
28
36
53
73
92
104
103
92
75
64
62
72
89
111
130
144
144
135
119
109
109
119
139
164
187
203
207
202
190
182
185
199
221
249
276
296
305
302
293
291
296
313
339
370
398
421
431
429
424
421
427
445
471
499
526
544
549
542
528
518
516
518
529
541
552
550
536
509
476
444
421
405
394
386
374
350
315
267
213
162
123
95
78
67
54
37
9
-28
-70
-109
-135
-151
-157
-160
-161
-168
-186
-213
-243
-267
-279
-279
-268
-253
-239
-232
-238
-254
-273
-289
-294
-288
-274
-254
-238
-227
-228
-241
-257
-268
-270
-262
-244
-224
-204
-193
-195
-207
-223
-234
-238
-228
-211
-190
-171
-158
-160
-172
-190
-202
-206
-197
-182
-161
-141
-127
-129
-139
-155
-166
-168
-161
-146
-127
-110
-101
-102
-116
-134
-147
-150
-141
-125
-106
-89
-79
-80
-95
-114
-127
-131
-126
-112
-95
-79
-71
-74
-90
-110
-124
-129
-124
-109
-93
-78
-68
-73
-86
-106
-120
-124
-117
-102
-84
-68
-59
-63
-79
-100
-117
-125
-120
-107
-90
-75
-66
-70
-84
-101
-115
-119
-110
-95
-75
-59
-49
-55
-69
-88
-101
-105
-99
-83
-64
-48
-39
-44
-60
-80
-94
-98
-91
-79
-60
-43
-37
-43
-60
-80
-93
-93
-85
-69
-51
-37
-32
-38
-54
-73
-83
-83
-73
-56
-38
-23
-17
-25
-44
-61
-71
-70
-55
-35
-10
13
24
24
13
-4
-14
-14
-4
12
33
52
62
60
47
29
14
7
7
11
17
18
12
-4
-29
-53
-69
-73
-65
-50
-34
-20
-18
-27
-48
-73
-90
-99
-95
-85
-71
-61
-59
-70
-90
-110
-124
-126
-116
-100
-81
-66
-61
-68
-84
-101
-112
-112
-102
-85
-66
-50
-43
-49
-66
-85
-96
-98
-89
-74
-54
-40
-37
-49
-75
-109
-144
-172
-193
-207
-211
-204
-188
-166
-127
-70
14
125
257
402
553
700
837
956
1062
1152
1227
1277
1289
1253
1161
1008
799
547
273
3
-234
-423
-551
-619
-635
-607
-555
-493
-428
-366
-303
-241
-183
-135
-96
-73
-66
-78
-100
-124
-136
-139
-124
-104
-79
-60
-49
-54
-66
-84
-93
-93
-81
-64
-44
-27
-20
-27
-42
-59
-69
-68
-56
-38
-15
2
9
4
-10
-25
-32
-29
-15
3
26
43
52
46
31
13
4
8
21
42
64
85
97
93
82
68
62
67
82
105
129
152
165
165
155
148
145
156
176
206
236
263
279
286
279
273
273
284
307
335
365
393
406
409
400
390
385
391
405
425
446
462
466
457
436
411
393
383
381
385
388
384
368
338
296
249
208
179
156
141
128
111
85
48
1
-45
-84
-111
-125
-131
-135
-140
-153
-178
-213
-246
-270
-283
-283
-277
-265
-260
-262
-274
-298
-320
-336
-340
-331
-316
-298
-283
-277
-284
-300
-318
-329
-328
-315
-297
-277
-259
-252
-257
-272
-287
-295
-290
-278
-257
-236
-218
-211
-216
-231
-247
-255
-253
-241
-222
-201
-183
-176
-181
-196
-211
-219
-216
-204
-186
-166
-150
-146
-153
-171
-187
-196
-195
-182
-162
-141
-124
-117
-124
-140
-157
-168
-168
-157
-141
-122
-107
-102
-111
-130
-150
-160
-161
-151
-136
-117
-104
-100
-109
-127
-146
-158
-160
-150
-131
-114
-100
-95
-104
-122
-141
-153
-155
-145
-129
-111
-96
-94
-102
-122
-141
-152
-152
-144
-126
-106
-91
-88
-95
-114
-132
-144
-145
-134
-117
-99
-85
-83
-91
-109
-129
-140
-142
-134
-116
-100
-86
-83
-91
-110
-127
-137
-137
-126
-110
-93
-78
-74
-84
-102
-119
-127
-122
-106
-81
-56
-37
-27
-29
-42
-56
-64
-61
-50
-33
-13
4
12
7
-5
-18
-25
-25
-18
-9
0
3
-7
-29
-56
-84
-102
-106
-101
-88
-70
-59
-58
-68
-88
-110
-124
-129
-122
-110
-96
-86
-86
-100
-120
-141
-155
-156
-146
-127
-109
-93
-88
-96
-111
-127
-137
-134
-124
-105
-86
-71
-68
-76
-95
-112
-122
-122
-111
-94
-75
-59
-59
-75
-101
-127
-152
-170
-185
-196
-204
-211
-216
-214
-198
-158
-89
8
131
267
410
549
677
794
902
1008
1111
1201
1266
1286
1251
1150
980
751
486
211
-48
-268
-435
-545
-602
-612
-590
-545
-488
-420
-343
-265
-193
-132
-89
-65
-63
-79
-104
-126
-137
-136
-124
-104
-84
-70
-68
-75
-91
-102
-106
-98
-83
-61
-43
-30
-30
-42
-58
-70
-73
-63
-45
-23
-2
12
12
2
-15
-29
-32
-25
-9
12
33
48
50
38
24
11
8
16
33
54
74
89
93
85
73
63
64
77
98
123
149
166
172
169
160
154
159
174
197
227
254
277
287
286
281
279
287
305
333
366
395
419
429
426
417
410
411
422
442
463
482
495
492
476
453
435
422
421
422
427
430
420
396
358
312
267
231
205
186
170
154
130
97
50
1
-44
-76
-98
-107
-111
-115
-126
-147
-178
-216
-249
-269
-280
-280
-273
-265
-262
-270
-289
-311
-330
-339
-335
-321
-305
-288
-278
-282
-294
-311
-325
-328
-320
-305
-287
-267
-255
-257
-268
-282
-294
-295
-287
-269
-247
-226
-213
-213
-224
-241
-254
-258
-250
-236
-213
-193
-181
-180
-190
-207
-222
-226
-217
-203
-183
-166
-153
-155
-166
-183
-195
-198
-188
-172
-151
-131
-120
-121
-135
-153
-170
-175
-167
-152
-134
-114
-102
-104
-116
-135
-151
-156
-152
-139
-121
-105
-95
-99
-114
-132
-149
-156
-152
-140
-124
-107
-99
-101
-116
-132
-149
-153
-149
-136
-119
-102
-94
-98
-111
-131
-146
-151
-146
-131
-114
-96
-88
-89
-102
-121
-135
-139
-134
-120
-102
-88
-78
-81
-98
-115
-131
-136
-131
-116
-98
-80
-70
-73
-86
-105
-119
-122
-117
-102
-84
-66
-58
-61
-75
-95
-111
-116
-111
-96
-80
-63
-53
-56
-70
-89
-102
-106
-100
-85
-63
-44
-33
-34
-45
-61
-73
-73
-63
-44
-20
1
13
12
0
-18
-32
-34
-25
-5
18
39
52
50
33
8
-17
-35
-42
-42
-34
-27
-27
-33
-49
-68
-84
-88
-81
-66
-50
-37
-32
-42
-60
-89
-110
-121
-122
-114
-99
-85
-76
-80
-94
-112
-127
-131
-125
-109
-90
-73
-63
-65
-80
-96
-110
-112
-105
-90
-70
-50
-42
-44
-58
-75
-89
-91
-86
-74
-63
-56
-64
-91
-132
-181
-221
-244
-242
-214
-166
-98
-19
64
151
241
343
456
584
718
855
985
1094
1172
1206
1190
1128
1017
863
672
455
222
-10
-227
-410
-544
-616
-627
-584
-503
-401
-298
-209
-146
-110
-98
-94
-93
-90
-85
-78
-69
-68
-74
-89
-104
-115
-114
-100
-81
-56
-37
-24
-24
-38
-56
-70
-74
-68
-54
-37
-20
-9
-10
-22
-38
-49
-50
-40
-22
-2
16
27
23
9
-7
-17
-15
-3
17
38
58
68
65
54
38
32
33
47
67
92
113
125
126
116
105
100
106
124
149
177
205
221
227
221
213
213
226
246
276
305
334
355
363
361
356
355
365
385
411
440
465
478
478
468
452
442
441
449
461
476
485
485
470
442
411
384
363
349
342
333
320
298
261
212
161
116
83
60
46
33
19
-3
-37
-79
-122
-160
-186
-200
-206
-206
-208
-218
-238
-267
-295
-316
-328
-326
-319
-306
-297
-294
-306
-324
-345
-359
-360
-351
-335
-314
-297
-288
-290
-303
-318
-325
-324
-313
-294
-273
-254
-246
-250
-263
-277
-284
-282
-268
-246
-222
-202
-192
-195
-208
-226
-237
-237
-227
-208
-187
-170
-161
-163
-180
-196
-207
-208
-198
-181
-160
-144
-135
-139
-153
-170
-180
-180
-170
-152
-132
-117
-110
-115
-130
-147
-158
-160
-149
-131
-112
-99
-91
-100
-117
-137
-152
-153
-147
-130
-111
-96
-88
-95
-112
-131
-144
-146
-136
-121
-104
-88
-83
-89
-105
-124
-137
-141
-134
-120
-102
-86
-81
-88
-104
-120
-131
-132
-122
-106
-89
-75
-69
-76
-94
-112
-126
-130
-121
-106
-89
-74
-68
-76
-91
-110
-121
-122
-112
-96
-78
-63
-58
-65
-83
-101
-112
-115
-105
-89
-68
-53
-47
-51
-68
-85
-98
-99
-90
-74
-56
-42
-35
-43
-59
-76
-86
-88
-78
-61
-42
-27
-20
-27
-43
-59
-69
-65
-53
-30
-7
13
22
19
6
-13
-23
-24
-14
4
27
47
57
54
41
21
4
-4
-7
-4
1
3
0
-14
-38
-59
-74
-76
-69
-55
-39
-27
-25
-37
-58
-83
-101
-109
-105
-96
-83
-73
-69
-78
-96
-115
-129
-130
-120
-104
-84
-68
-61
-69
-86
-104
-116
-116
-107
-90
-69
-54
-47
-53
-66
-83
-94
-94
-84
-68
-51
-39
-42
-60
-96
-137
-177
-207
-222
-221
-202
-171
-126
-74
-13
65
162
281
414
557
703
845
973
1082
1164
1218
1241
1227
1165
1053
893
686
447
189
-65
-290
-466
-578
-627
-620
-571
-496
-412
-336
-274
-226
-182
-144
-110
-81
-60
-48
-48
-60
-83
-104
-115
-115
-104
-84
-59
-39
-32
-35
-50
-66
-76
-76
-66
-50
-30
-14
-7
-13
-29
-44
-54
-50
-39
-19
3
22
32
28
14
0
-7
-5
6
26
46
64
72
67
53
41
33
38
50
72
94
113
121
118
105
93
88
92
109
133
160
182
195
196
190
182
182
194
216
246
278
305
324
328
324
317
317
328
350
378
407
432
447
449
440
427
422
426
440
458
478
493
498
487
466
439
419
406
401
401
401
394
374
339
293
245
202
169
148
133
121
105
75
28
-18
-64
-98
-121
-131
-136
-137
-144
-161
-187
-219
-249
-267
-272
-269
-258
-247
-241
-248
-264
-287
-306
-318
-314
-303
-284
-267
-253
-250
-262
-278
-292
-297
-290
-275
-257
-236
-222
-219
-228
-244
-259
-264
-257
-242
-221
-201
-186
-185
-192
-208
-222
-226
-217
-201
-180
-158
-145
-142
-152
-170
-185
-191
-186
-171
-151
-131
-117
-116
-126
-144
-158
-166
-162
-147
-130
-114
-104
-104
-116
-135
-149
-156
-151
-136
-116
-96
-85
-85
-95
-114
-131
-137
-132
-119
-100
-81
-70
-71
-85
-105
-122
-131
-130
-116
-99
-81
-70
-71
-85
-106
-124
-131
-126
-115
-96
-79
-69
-68
-81
-100
-117
-124
-120
-107
-90
-74
-63
-64
-78
-96
-114
-121
-116
-102
-84
-65
-54
-54
-68
-88
-104
-111
-110
-98
-80
-63
-51
-53
-64
-83
-98
-102
-98
-83
-64
-45
-33
-34
-50
-71
-88
-96
-90
-75
-51
-28
-9
-2
-5
-19
-30
-34
-29
-15
3
23
36
37
27
11
-5
-14
-14
-7
2
9
11
0
-23
-49
-70
-81
-80
-68
-50
-35
-27
-29
-45
-66
-88
-100
-100
-94
-81
-69
-63
-69
-85
-109
-126
-135
-131
-117
-99
-81
-69
-68
-80
-96
-112
-116
-111
-98
-79
-63
-53
-53
-66
-85
-101
-107
-104
-90
-70
-54
-44
-50
-73
-109
-147
-182
-209
-224
-227
-218
-197
-167
-126
-71
6
109
236
379
529
681
824
953
1063
1151
1221
1262
1268
1228
1134
983
783
538
269
3
-234
-423
-553
-622
-636
-604
-547
-478
-412
-352
-297
-243
-193
-149
-110
-84
-70
-71
-88
-107
-124
-130
-122
-105
-81
-60
-45
-44
-54
-71
-86
-93
-86
-73
-51
-33
-20
-19
-29
-47
-59
-63
-55
-39
-19
1
13
16
6
-9
-22
-24
-17
1
22
43
55
57
47
29
16
13
21
36
58
80
95
101
93
80
70
72
84
104
131
155
175
182
179
169
165
169
185
211
242
272
296
305
304
298
296
299
317
343
373
401
424
434
431
421
414
414
422
439
458
478
490
485
467
444
417
400
391
390
390
385
374
348
307
258
212
174
146
126
110
97
77
44
2
-45
-86
-117
-136
-144
-147
-147
-157
-176
-204
-239
-269
-287
-292
-288
-275
-262
-255
-259
-275
-297
-315
-324
-321
-310
-293
-275
-265
-267
-278
-295
-309
-315
-308
-290
-269
-249
-236
-234
-244
-262
-274
-278
-270
-253
-232
-211
-197
-193
-202
-217
-229
-231
-222
-206
-186
-166
-157
-156
-168
-185
-197
-200
-190
-171
-149
-126
-112
-111
-122
-140
-155
-161
-155
-142
-126
-107
-98
-99
-111
-129
-144
-147
-142
-127
-109
-90
-79
-80
-94
-114
-130
-139
-136
-124
-107
-93
-84
-88
-106
-125
-139
-141
-131
-116
-98
-81
-76
-84
-100
-119
-131
-136
-127
-112
-96
-81
-76
-84
-100
-120
-132
-135
-125
-109
-90
-75
-66
-74
-90
-109
-121
-122
-114
-100
-83
-70
-66
-75
-93
-111
-125
-126
-119
-101
-83
-66
-59
-64
-79
-96
-107
-109
-100
-85
-68
-54
-48
-55
-71
-90
-104
-105
-98
-81
-63
-45
-40
-45
-60
-78
-88
-89
-79
-61
-42
-23
-13
-14
-24
-38
-43
-38
-25
-7
13
29
36
29
16
1
-7
-5
6
21
37
47
43
24
-4
-35
-60
-70
-69
-56
-40
-27
-20
-27
-43
-61
-74
-78
-73
-63
-50
-43
-43
-56
-80
-102
-120
-121
-115
-99
-80
-64
-58
-64
-79
-98
-109
-109
-100
-84
-65
-50
-43
-51
-68
-88
-100
-102
-95
-79
-60
-44
-37
-40
-55
-74
-90
-100
-106
-112
-124
-137
-160
-186
-207
-214
-196
-146
-65
38
155
281
400
511
614
715
822
934
1047
1148
1218
1242
1203
1095
925
705
458
208
-27
-227
-382
-487
-545
-561
-545
-500
-432
-349
-259
-177
-107
-59
-34
-35
-53
-78
-98
-106
-101
-89
-69
-51
-42
-44
-55
-70
-78
-78
-65
-48
-28
-13
-5
-12
-28
-45
-55
-55
-43
-24
-3
14
23
18
4
-12
-22
-22
-9
8
29
47
55
52
41
26
18
19
33
53
75
94
105
101
92
78
73
78
94
116
143
166
179
179
171
160
157
165
182
207
235
262
278
284
281
276
276
288
310
339
371
399
417
421
415
407
406
412
429
450
473
495
503
499
483
465
451
447
451
458
466
470
458
432
395
353
317
288
268
253
240
221
195
156
108
58
16
-14
-35
-48
-58
-69
-89
-117
-156
-195
-224
-242
-248
-248
-243
-241
-247
-263
-288
-314
-331
-336
-331
-315
-297
-282
-275
-280
-297
-314
-325
-325
-316
-301
-282
-265
-259
-263
-277
-290
-299
-295
-284
-264
-242
-224
-214
-218
-229
-243
-250
-248
-237
-216
-195
-178
-170
-175
-190
-206
-216
-216
-203
-185
-165
-145
-137
-141
-155
-170
-178
-178
-167
-150
-134
-117
-112
-121
-137
-157
-170
-170
-160
-142
-122
-106
-99
-105
-120
-136
-146
-146
-137
-120
-102
-88
-81
-89
-106
-126
-136
-141
-132
-119
-101
-89
-85
-94
-110
-129
-141
-141
-132
-117
-99
-84
-81
-89
-105
-124
-135
-135
-125
-109
-90
-75
-69
-76
-95
-114
-125
-126
-117
-102
-84
-70
-64
-71
-89
-107
-120
-121
-110
-95
-78
-63
-58
-65
-83
-101
-114
-114
-105
-89
-71
-56
-51
-58
-75
-91
-104
-102
-91
-75
-59
-44
-42
-51
-70
-89
-101
-104
-94
-78
-59
-45
-40
-47
-63
-80
-90
-91
-81
-65
-47
-29
-22
-27
-40
-53
-56
-49
-30
-8
14
31
37
26
9
-7
-15
-13
0
17
36
46
46
29
3
-24
-44
-53
-51
-42
-29
-19
-19
-29
-48
-66
-76
-78
-69
-54
-40
-32
-33
-47
-69
-89
-104
-106
-98
-84
-68
-55
-53
-64
-81
-96
-106
-102
-90
-73
-54
-40
-38
-47
-64
-80
-89
-88
-78
-59
-42
-29
-27
-35
-53
-69
-79
-80
-74
-66
-64
-75
-100
-140
-183
-218
-232
-217
-172
-104
-14
88
194
296
396
501
615
741
874
1008
1130
1223
1273
1264
1191
1062
885
676
450
216
-4
-203
-367
-493
-570
-596
-571
-507
-416
-315
-217
-137
-84
-59
-56
-66
-75
-78
-74
-64
-50
-42
-39
-48
-64
-78
-81
-78
-63
-43
-23
-7
-3
-12
-27
-43
-50
-45
-33
-13
6
22
27
18
3
-13
-20
-17
-4
14
34
48
52
43
27
12
7
11
27
48
72
90
98
93
80
69
63
70
85
108
131
149
157
152
139
128
126
135
155
181
208
232
245
245
236
228
231
245
269
300
333
359
375
379
374
368
370
384
406
434
461
481
491
485
468
453
445
446
455
468
482
491
483
462
430
395
365
345
330
322
309
292
263
222
172
124
83
55
37
24
14
0
-25
-61
-105
-146
-177
-197
-206
-204
-201
-201
-209
-231
-259
-284
-300
-305
-298
-284
-270
-259
-259
-270
-289
-306
-316
-313
-301
-282
-263
-248
-244
-252
-269
-284
-290
-287
-273
-252
-232
-214
-211
-218
-233
-249
-255
-250
-236
-214
-190
-172
-166
-171
-187
-201
-207
-204
-192
-172
-151
-136
-131
-140
-156
-172
-180
-177
-163
-144
-124
-110
-106
-117
-134
-150
-157
-153
-140
-122
-102
-88
-85
-95
-114
-131
-140
-136
-124
-104
-83
-70
-66
-76
-94
-111
-121
-120
-107
-90
-71
-59
-58
-70
-90
-109
-121
-120
-110
-93
-74
-60
-58
-68
-85
-102
-114
-112
-102
-88
-70
-60
-59
-70
-89
-106
-115
-114
-101
-85
-68
-55
-53
-64
-83
-101
-110
-109
-99
-81
-63
-50
-48
-59
-76
-94
-102
-100
-89
-71
-51
-39
-38
-48
-68
-86
-95
-94
-84
-65
-48
-34
-33
-43
-60
-78
-86
-85
-73
-56
-39
-25
-23
-33
-51
-68
-75
-71
-55
-32
-7
13
23
19
6
-8
-14
-10
1
19
38
52
57
48
32
16
3
2
6
14
22
23
13
-7
-33
-56
-69
-69
-59
-43
-25
-15
-15
-29
-53
-76
-91
-96
-90
-79
-65
-58
-59
-73
-91
-110
-120
-117
-105
-85
-66
-50
-49
-58
-75
-91
-99
-95
-83
-65
-45
-33
-32
-43
-61
-79
-86
-84
-71
-53
-35
-24
-25
-43
-74
-109
-144
-171
-191
-201
-201
-191
-175
-142
-85
-9
93
220
363
517
669
813
945
1057
1155
1236
1294
1319
1299
1222
1087
894
652
384
110
-139
-341
-489
-579
-611
-601
-560
-505
-446
-386
-325
-264
-206
-151
-106
-73
-56
-56
-73
-94
-111
-116
-109
-94
-71
-53
-39
-42
-53
-69
-83
-85
-76
-59
-39
-20
-8
-9
-20
-38
-49
-51
-42
-24
-3
17
28
28
17
1
-12
-14
-7
12
33
52
63
62
50
34
23
22
31
48
73
94
108
108
98
83
73
75
89
110
136
161
177
184
177
169
162
169
185
210
241
269
289
299
297
293
291
299
319
347
379
407
427
436
429
419
410
411
422
441
462
480
487
482
465
444
425
412
411
412
416
415
404
375
335
288
245
210
186
170
157
144
123
90
47
0
-40
-71
-89
-99
-102
-107
-117
-140
-173
-207
-236
-253
-257
-252
-242
-232
-231
-241
-259
-282
-300
-306
-301
-289
-272
-255
-247
-249
-262
-279
-293
-295
-287
-269
-249
-229
-218
-217
-229
-246
-258
-260
-252
-234
-213
-195
-182
-182
-193
-208
-219
-221
-211
-192
-172
-153
-142
-142
-156
-173
-186
-190
-181
-165
-145
-125
-114
-115
-130
-149
-162
-166
-160
-145
-126
-109
-100
-101
-115
-132
-146
-149
-144
-130
-112
-95
-88
-93
-109
-129
-144
-147
-142
-126
-107
-90
-80
-83
-98
-116
-131
-136
-130
-117
-100
-86
-79
-86
-102
-124
-141
-146
-141
-126
-107
-91
-83
-85
-99
-119
-132
-137
-131
-117
-99
-81
-71
-75
-89
-106
-120
-125
-117
-104
-86
-70
-63
-65
-80
-98
-111
-114
-105
-90
-70
-54
-47
-51
-68
-89
-106
-111
-106
-93
-74
-55
-47
-49
-63
-80
-94
-99
-93
-78
-60
-42
-33
-35
-49
-65
-78
-80
-70
-53
-30
-9
6
8
0
-12
-23
-23
-12
6
24
43
52
49
34
14
1
-5
-2
7
17
23
21
6
-18
-45
-66
-75
-70
-55
-38
-22
-14
-20
-38
-61
-80
-90
-90
-83
-70
-61
-59
-68
-86
-107
-124
-126
-120
-105
-84
-66
-58
-59
-75
-94
-107
-111
-104
-89
-70
-53
-43
-45
-61
-80
-94
-98
-91
-76
-59
-42
-34
-39
-58
-85
-111
-132
-150
-163
-171
-177
-181
-180
-172
-150
-102
-29
73
194
328
465
597
716
825
927
1024
1116
1192
1236
1233
1174
1049
860
621
354
89
-149
-341
-474
-550
-569
-549
-503
-443
-377
-305
-234
-165
-105
-58
-27
-15
-23
-45
-73
-96
-105
-101
-86
-66
-47
-35
-35
-47
-61
-74
-75
-66
-50
-30
-13
-3
-5
-19
-35
-48
-49
-40
-22
0
21
31
31
17
0
-12
-13
-4
14
34
54
64
63
52
38
28
29
39
59
82
101
113
113
101
87
82
87
103
126
152
174
186
186
177
167
164
172
192
220
251
277
296
302
300
297
299
313
335
365
396
422
441
446
441
432
431
436
452
472
493
508
513
504
485
463
446
436
436
440
445
440
425
394
350
305
264
233
210
194
179
160
133
93
43
-5
-49
-79
-96
-109
-115
-122
-136
-163
-197
-232
-257
-272
-275
-272
-264
-260
-264
-278
-299
-321
-335
-336
-328
-313
-294
-280
-275
-282
-299
-318
-329
-329
-319
-300
-280
-264
-255
-259
-274
-289
-297
-294
-282
-262
-239
-222
-214
-218
-232
-248
-257
-254
-243
-224
-202
-185
-177
-182
-196
-212
-221
-218
-206
-187
-165
-147
-137
-141
-153
-167
-176
-175
-162
-146
-129
-115
-110
-119
-137
-155
-165
-165
-153
-135
-114
-98
-90
-95
-109
-126
-139
-137
-129
-114
-96
-83
-78
-86
-104
-124
-136
-137
-129
-114
-95
-80
-75
-83
-100
-119
-130
-130
-121
-107
-89
-75
-71
-81
-100
-120
-134
-135
-125
-109
-90
-74
-69
-78
-94
-112
-124
-125
-117
-101
-84
-70
-66
-74
-89
-106
-116
-116
-104
-89
-71
-56
-53
-61
-80
-98
-110
-111
-102
-89
-70
-55
-51
-59
-74
-93
-102
-102
-91
-75
-55
-40
-38
-47
-64
-83
-94
-95
-86
-68
-49
-33
-27
-35
-51
-69
-80
-80
-71
-54
-35
-19
-13
-20
-37
-53
-61
-59
-45
-25
0
18
27
23
9
-5
-15
-14
-2
17
39
57
67
60
43
23
7
-2
-2
3
8
13
7
-10
-35
-58
-73
-75
-66
-51
-34
-22
-20
-30
-50
-71
-89
-95
-90
-81
-66
-58
-55
-66
-84
-102
-114
-115
-104
-88
-68
-51
-47
-54
-73
-90
-101
-102
-93
-76
-58
-42
-37
-43
-59
-76
-85
-86
-76
-60
-43
-32
-35
-54
-89
-130
-170
-198
-211
-209
-191
-158
-116
-69
-9
62
155
266
393
528
669
805
930
1034
1115
1170
1192
1179
1116
1007
847
641
404
148
-101
-318
-479
-575
-605
-579
-512
-425
-336
-260
-201
-157
-124
-96
-73
-54
-40
-32
-37
-50
-73
-93
-104
-101
-89
-68
-45
-28
-23
-29
-45
-63
-71
-71
-59
-40
-19
-4
3
-2
-17
-33
-42
-40
-28
-9
12
29
37
32
18
3
-3
-2
12
31
49
67
73
69
54
39
32
34
48
68
90
109
118
115
105
93
88
97
114
139
166
190
202
203
199
190
190
201
221
249
281
305
323
328
324
319
322
334
356
385
416
441
456
457
450
439
436
441
455
473
493
506
507
493
471
445
424
412
406
406
404
395
373
335
288
237
195
162
140
125
114
98
72
36
-9
-54
-91
-115
-129
-135
-139
-145
-160
-185
-221
-257
-277
-283
-279
-270
-259
-253
-259
-275
-297
-316
-325
-324
-311
-294
-277
-264
-263
-273
-289
-304
-310
-305
-290
-270
-252
-238
-234
-243
-258
-270
-274
-267
-252
-231
-209
-195
-191
-200
-213
-228
-233
-227
-212
-192
-172
-158
-153
-162
-177
-190
-195
-188
-173
-153
-135
-124
-122
-134
-152
-168
-176
-173
-158
-139
-120
-106
-104
-115
-132
-147
-152
-149
-136
-117
-99
-86
-84
-96
-115
-131
-140
-136
-124
-106
-90
-78
-79
-93
-111
-129
-136
-134
-120
-101
-84
-73
-74
-85
-106
-124
-131
-130
-119
-101
-85
-74
-74
-85
-104
-121
-127
-124
-110
-94
-74
-63
-61
-73
-91
-109
-117
-115
-105
-89
-73
-61
-63
-75
-95
-111
-119
-115
-101
-85
-65
-55
-55
-68
-86
-104
-111
-106
-93
-75
-56
-44
-44
-56
-75
-93
-99
-95
-81
-61
-43
-30
-29
-42
-60
-78
-86
-85
-73
-55
-38
-25
-24
-34
-48
-59
-61
-50
-30
-5
18
34
37
27
7
-9
-18
-14
0
21
42
58
59
46
22
-2
-18
-28
-25
-20
-12
-8
-14
-29
-49
-68
-75
-75
-63
-48
-33
-24
-30
-48
-71
-95
-107
-109
-100
-85
-69
-60
-60
-73
-91
-107
-114
-111
-96
-79
-60
-49
-49
-61
-79
-95
-101
-96
-83
-64
-45
-33
-32
-44
-61
-79
-86
-85
-73
-60
-50
-51
-73
-112
-161
-208
-241
-250
-234
-191
-127
-45
46
141
243
355
480
616
762
910
1052
1175
1267
1314
1310
1254
1148
993
800
580
343
101
-129
-334
-499
-612
-665
-661
-611
-530
-436
-345
-268
-216
-181
-160
-142
-124
-105
-86
-68
-58
-60
-73
-89
-102
-106
-99
-83
-61
-40
-24
-23
-32
-48
-63
-66
-61
-47
-25
-5
8
11
1
-17
-30
-37
-30
-14
4
26
37
41
27
12
-3
-7
0
17
38
60
75
78
68
52
39
33
42
60
83
106
124
131
125
113
104
104
115
136
162
189
208
217
215
203
199
203
218
245
276
307
330
344
345
340
337
342
356
381
409
437
456
465
457
445
432
430
434
447
462
476
481
473
451
420
389
365
349
339
334
325
307
278
236
186
143
104
78
62
52
39
23
-3
-43
-86
-126
-157
-173
-178
-178
-176
-181
-195
-219
-248
-275
-293
-295
-292
-280
-267
-260
-264
-278
-299
-316
-325
-323
-310
-294
-275
-264
-264
-274
-292
-304
-308
-299
-282
-260
-238
-226
-222
-233
-249
-263
-265
-260
-243
-222
-202
-188
-186
-196
-212
-226
-229
-222
-206
-183
-162
-147
-144
-153
-170
-185
-191
-183
-170
-151
-131
-117
-117
-127
-145
-162
-167
-162
-147
-129
-111
-99
-99
-110
-129
-145
-151
-149
-136
-119
-101
-90
-90
-102
-122
-139
-142
-136
-122
-104
-88
-80
-85
-100
-120
-135
-141
-136
-121
-102
-85
-75
-79
-93
-111
-127
-132
-130
-117
-104
-88
-83
-86
-102
-122
-139
-145
-139
-124
-105
-88
-75
-78
-91
-111
-125
-131
-127
-114
-96
-80
-73
-76
-91
-110
-125
-130
-122
-109
-89
-71
-63
-65
-79
-98
-110
-116
-107
-94
-76
-59
-50
-53
-65
-83
-96
-99
-93
-78
-59
-42
-32
-32
-42
-54
-61
-59
-44
-24
-2
18
29
28
14
-3
-14
-15
-7
9
27
41
43
31
6
-24
-51
-65
-66
-58
-43
-27
-18
-22
-35
-56
-73
-81
-78
-69
-56
-45
-43
-51
-71
-95
-114
-121
-117
-102
-85
-68
-58
-60
-73
-91
-104
-106
-100
-86
-68
-51
-43
-48
-64
-84
-100
-105
-99
-84
-65
-47
-38
-39
-53
-70
-86
-94
-96
-96
-99
-107
-129
-160
-195
-221
-227
-202
-147
-64
42
161
284
401
512
619
731
849
973
1094
1195
1263
1278
1230
1110
935
715
471
223
-10
-216
-381
-502
-579
-611
-604
-558
-482
-387
-289
-197
-121
-71
-49
-51
-70
-88
-99
-101
-91
-78
-61
-53
-54
-65
-81
-91
-91
-83
-64
-43
-24
-13
-13
-25
-44
-56
-59
-53
-35
-17
1
12
11
-3
-18
-30
-30
-20
-3
17
37
48
47
34
19
7
7
18
38
60
82
97
97
88
74
65
68
79
101
126
150
167
171
165
156
151
156
171
195
222
248
266
272
266
258
253
262
281
310
343
375
399
411
412
406
406
414
427
450
475
497
509
508
498
481
467
462
467
475
483
490
483
462
429
388
349
317
294
277
263
247
221
184
136
85
39
4
-18
-32
-42
-50
-66
-91
-127
-167
-201
-223
-234
-236
-232
-229
-233
-246
-269
-295
-314
-323
-319
-308
-290
-275
-270
-275
-292
-311
-326
-330
-324
-309
-288
-270
-258
-260
-272
-285
-298
-299
-289
-272
-250
-232
-221
-223
-234
-250
-262
-262
-250
-232
-208
-188
-177
-177
-187
-203
-213
-214
-203
-186
-166
-147
-137
-142
-157
-176
-190
-192
-183
-166
-145
-125
-112
-114
-125
-145
-157
-161
-153
-140
-122
-109
-101
-106
-120
-137
-151
-151
-142
-125
-105
-88
-78
-83
-98
-115
-129
-131
-124
-110
-90
-75
-66
-73
-88
-107
-122
-126
-121
-109
-91
-78
-69
-74
-89
-107
-122
-126
-119
-104
-85
-70
-63
-65
-80
-98
-110
-112
-104
-89
-70
-55
-47
-54
-69
-88
-101
-104
-96
-81
-63
-47
-38
-42
-58
-76
-91
-96
-88
-73
-54
-38
-29
-34
-48
-66
-80
-84
-76
-60
-42
-27
-18
-23
-38
-56
-69
-71
-65
-49
-29
-12
0
-3
-17
-32
-44
-47
-35
-18
4
26
38
39
29
16
4
7
17
33
52
68
74
70
57
42
31
28
32
38
44
46
37
18
-8
-33
-49
-51
-44
-29
-12
1
2
-8
-28
-50
-66
-71
-66
-56
-44
-34
-34
-48
-68
-90
-104
-106
-96
-80
-60
-43
-37
-42
-55
-73
-84
-83
-74
-58
-39
-25
-23
-29
-47
-65
-76
-75
-65
-49
-29
-17
-13
-24
-49
-81
-112
-137
-158
-171
-176
-175
-167
-155
-130
-89
-22
72
187
318
453
589
716
829
930
1023
1108
1175
1215
1211
1152
1036
858
629
370
104
-135
-330
-466
-539
-556
-527
-469
-403
-334
-267
-203
-144
-93
-50
-20
-5
-7
-24
-50
-74
-90
-90
-79
-56
-34
-15
-7
-12
-27
-44
-55
-54
-45
-28
-8
8
16
11
-4
-18
-27
-25
-14
3
21
37
43
37
23
8
2
4
18
37
58
74
82
75
62
47
41
46
60
82
106
125
136
133
121
109
105
113
128
152
179
201
215
215
206
197
195
203
225
252
281
308
325
330
327
322
323
335
356
386
416
442
456
461
453
446
445
452
470
490
512
527
531
521
501
478
458
450
446
450
451
446
427
395
351
304
262
228
205
187
170
151
124
84
39
-8
-47
-73
-89
-96
-101
-110
-126
-152
-187
-221
-246
-259
-259
-253
-246
-241
-242
-257
-279
-300
-313
-314
-306
-292
-274
-260
-257
-263
-279
-295
-304
-303
-290
-272
-252
-237
-231
-237
-253
-269
-277
-274
-262
-243
-223
-208
-201
-208
-222
-237
-244
-241
-226
-206
-185
-167
-161
-165
-180
-195
-202
-200
-188
-170
-150
-135
-129
-136
-152
-168
-176
-173
-160
-140
-119
-101
-95
-101
-117
-134
-145
-144
-132
-116
-98
-85
-81
-89
-105
-124
-132
-132
-121
-105
-86
-74
-70
-79
-96
-112
-122
-122
-112
-98
-78
-65
-61
-70
-88
-104
-114
-114
-104
-88
-71
-59
-56
-66
-85
-104
-115
-115
-104
-89
-70
-56
-53
-60
-78
-94
-104
-102
-91
-74
-58
-45
-42
-50
-70
-89
-100
-101
-91
-75
-54
-39
-33
-39
-55
-73
-81
-81
-73
-59
-44
-32
-30
-40
-59
-78
-89
-88
-76
-59
-42
-25
-22
-32
-49
-68
-76
-76
-65
-48
-28
-14
-9
-18
-35
-53
-61
-60
-48
-27
-4
14
23
22
12
1
-3
1
13
31
47
59
62
54
39
27
18
21
31
42
53
55
46
24
-3
-29
-47
-49
-40
-25
-7
6
7
-7
-28
-51
-68
-73
-69
-58
-47
-38
-39
-53
-75
-96
-109
-110
-101
-84
-65
-50
-47
-53
-70
-86
-96
-94
-81
-64
-43
-29
-24
-32
-47
-64
-71
-70
-58
-39
-19
-5
-2
-13
-35
-63
-86
-104
-120
-134
-145
-158
-171
-181
-182
-155
-91
0
116
251
394
536
667
788
899
1007
1113
1211
1287
1325
1310
1231
1083
875
623
356
97
-132
-315
-451
-534
-575
-579
-558
-517
-457
-385
-306
-227
-156
-100
-64
-51
-58
-76
-96
-106
-105
-93
-74
-54
-39
-35
-43
-58
-71
-76
-71
-56
-38
-18
-7
-4
-15
-34
-49
-54
-49
-33
-12
7
22
23
12
-5
-20
-25
-18
-2
18
39
53
54
44
28
14
11
18
37
60
83
99
104
98
83
72
70
79
97
120
144
160
166
160
149
141
144
159
184
213
243
268
281
281
274
271
276
292
318
348
379
402
414
415
406
400
404
416
437
462
483
498
499
487
466
447
436
435
439
447
451
449
431
398
355
313
279
253
236
222
208
189
157
115
67
23
-12
-33
-45
-50
-54
-65
-86
-117
-156
-190
-212
-223
-223
-218
-212
-212
-222
-242
-268
-289
-299
-300
-289
-273
-255
-243
-243
-255
-274
-289
-297
-292
-279
-260
-243
-231
-228
-241
-255
-268
-272
-263
-247
-227
-204
-191
-188
-201
-217
-229
-234
-228
-211
-190
-170
-153
-152
-165
-181
-196
-201
-193
-177
-157
-139
-124
-124
-137
-155
-170
-173
-167
-151
-130
-111
-99
-99
-110
-129
-144
-151
-146
-131
-114
-96
-85
-85
-98
-116
-131
-136
-131
-119
-100
-84
-74
-78
-91
-111
-127
-135
-130
-116
-99
-80
-69
-71
-83
-102
-120
-127
-125
-114
-98
-83
-73
-76
-90
-109
-124
-127
-122
-106
-86
-69
-59
-61
-76
-95
-112
-120
-114
-101
-83
-65
-54
-56
-70
-90
-106
-114
-109
-95
-79
-61
-50
-53
-64
-84
-98
-105
-98
-83
-65
-47
-37
-39
-51
-73
-89
-96
-91
-79
-59
-42
-29
-32
-44
-64
-79
-83
-75
-58
-33
-10
8
13
4
-9
-22
-27
-20
-7
12
31
44
46
34
19
3
-4
-4
2
8
14
12
1
-23
-49
-69
-76
-74
-61
-44
-28
-20
-25
-42
-65
-85
-95
-96
-89
-76
-65
-61
-68
-86
-107
-124
-131
-126
-110
-90
-73
-61
-61
-75
-93
-109
-114
-110
-95
-76
-58
-48
-48
-59
-78
-90
-96
-89
-75
-58
-39
-30
-35
-53
-81
-114
-141
-163
-178
-187
-191
-187
-181
-163
-130
-73
14
128
261
406
553
695
823
939
1041
1131
1210
1261
1274
1237
1140
982
764
507
231
-35
-262
-437
-555
-612
-619
-588
-533
-468
-402
-331
-264
-196
-137
-89
-54
-37
-39
-55
-78
-98
-104
-99
-84
-63
-43
-29
-27
-35
-51
-63
-66
-58
-40
-22
-2
8
7
-5
-22
-34
-37
-28
-10
11
29
41
41
31
14
2
0
8
26
46
64
77
77
65
50
39
38
47
64
87
106
119
121
111
98
89
93
109
131
156
181
195
197
191
180
177
187
207
235
266
292
310
315
313
308
308
323
345
376
407
436
452
458
452
442
439
445
458
475
495
509
513
503
481
456
435
424
421
421
424
420
401
373
330
284
242
208
185
169
152
134
106
67
21
-29
-69
-95
-112
-117
-121
-125
-137
-162
-195
-228
-253
-268
-272
-265
-257
-249
-250
-263
-283
-305
-319
-325
-318
-303
-285
-270
-265
-270
-284
-299
-309
-305
-293
-273
-252
-234
-227
-232
-246
-262
-270
-269
-258
-238
-216
-197
-187
-191
-204
-219
-229
-227
-214
-196
-176
-157
-151
-153
-167
-182
-191
-190
-180
-161
-142
-126
-121
-127
-142
-160
-170
-168
-158
-141
-120
-102
-96
-101
-117
-134
-145
-144
-132
-116
-96
-80
-74
-81
-99
-116
-129
-130
-120
-105
-86
-74
-68
-75
-93
-109
-120
-120
-111
-95
-78
-63
-60
-69
-85
-105
-117
-120
-111
-98
-80
-66
-61
-69
-84
-101
-111
-112
-102
-88
-69
-55
-51
-60
-80
-100
-112
-115
-107
-90
-73
-59
-53
-61
-80
-99
-111
-112
-105
-89
-71
-55
-53
-60
-76
-96
-107
-110
-100
-85
-65
-50
-43
-49
-65
-81
-91
-91
-83
-65
-48
-34
-29
-39
-56
-75
-86
-88
-80
-63
-45
-30
-24
-30
-45
-61
-71
-70
-60
-42
-24
-8
-3
-9
-23
-38
-47
-40
-24
-3
22
41
49
44
29
12
3
4
17
38
60
78
83
74
50
24
2
-9
-15
-12
-5
1
-2
-13
-30
-48
-58
-56
-47
-32
-15
-4
-4
-18
-40
-65
-84
-91
-85
-74
-58
-47
-43
-53
-70
-89
-100
-100
-89
-73
-54
-40
-35
-43
-60
-79
-90
-91
-80
-63
-42
-27
-20
-25
-40
-58
-68
-68
-59
-44
-32
-27
-38
-68
-111
-158
-196
-214
-209
-182
-132
-69
2
78
156
243
343
457
583
717
853
982
1090
1169
1208
1203
1152
1055
914
730
516
281
41
-186
-379
-520
-599
-611
-570
-491
-390
-290
-204
-144
-107
-90
-79
-73
-64
-54
-44
-39
-42
-53
-70
-86
-93
-88
-73
-53
-30
-14
-8
-13
-30
-44
-51
-50
-37
-18
2
17
24
18
3
-10
-18
-14
0
19
39
55
59
53
37
22
13
16
31
52
75
94
103
98
84
70
62
67
80
100
125
144
154
152
141
133
130
140
159
185
211
235
248
247
241
233
235
246
269
300
333
361
380
386
384
381
386
401
424
452
483
507
518
517
506
492
486
490
502
518
534
544
542
526
497
468
445
429
421
416
411
399
373
333
284
233
189
155
131
115
101
83
55
19
-24
-66
-101
-124
-134
-137
-141
-145
-157
-180
-209
-237
-255
-260
-254
-241
-228
-221
-226
-243
-265
-287
-299
-299
-289
-273
-255
-243
-239
-247
-262
-273
-275
-267
-252
-232
-213
-202
-202
-213
-232
-244
-248
-239
-221
-198
-175
-161
-158
-167
-185
-200
-206
-203
-190
-172
-152
-140
-137
-146
-161
-172
-176
-167
-150
-127
-106
-93
-89
-101
-116
-131
-135
-129
-112
-93
-74
-59
-59
-69
-88
-104
-111
-107
-95
-78
-59
-47
-45
-54
-71
-88
-94
-91
-78
-60
-43
-32
-33
-45
-64
-83
-91
-88
-75
-58
-40
-29
-30
-43
-63
-80
-88
-85
-73
-55
-38
-27
-27
-39
-58
-73
-76
-71
-59
-40
-24
-12
-14
-27
-47
-64
-71
-70
-58
-40
-25
-14
-17
-29
-48
-64
-68
-63
-48
-29
-10
1
0
-13
-32
-49
-56
-53
-42
-24
-7
3
2
-10
-28
-44
-51
-48
-34
-18
1
11
11
-2
-22
-38
-44
-40
-25
-8
9
22
21
8
-12
-28
-34
-28
-13
8
31
48
53
46
33
21
18
26
41
60
78
90
89
77
59
43
34
34
43
50
58
58
47
23
-3
-27
-39
-35
-24
-8
8
17
12
-4
-28
-48
-60
-61
-54
-42
-29
-23
-27
-44
-66
-84
-93
-89
-75
-56
-37
-24
-22
-32
-49
-63
-68
-63
-48
-30
-12
-3
-4
-17
-35
-53
-58
-54
-39
-19
2
13
13
-2
-27
-54
-79
-96
-110
-119
-126
-131
-135
-130
-112
-70
3
106
232
374
521
665
798
919
1028
1133
1227
1304
1349
1344
1282
1154
963
722
453
182
-63
-264
-416
-512
-558
-561
-538
-496
-440
-374
-301
-227
-157
-95
-49
-22
-15
-28
-49
-69
-78
-74
-59
-39
-17
-2
2
-7
-20
-32
-37
-29
-15
4
21
32
29
16
-2
-17
-22
-13
2
23
44
57
55
44
27
12
8
16
32
54
77
92
94
84
69
55
53
59
74
94
114
126
128
116
103
93
93
105
126
154
181
200
207
201
190
182
186
201
225
253
281
303
310
309
303
299
307
327
354
386
416
439
446
444
432
426
427
441
462
487
511
526
527
514
495
476
463
461
463
468
470
461
440
404
360
317
283
258
241
226
211
189
154
109
60
18
-15
-33
-43
-48
-54
-65
-90
-122
-161
-193
-212
-221
-218
-209
-202
-200
-206
-224
-247
-265
-275
-272
-259
-243
-227
-217
-221
-236
-254
-270
-275
-270
-255
-236
-217
-204
-203
-214
-232
-244
-247
-239
-222
-198
-180
-167
-167
-177
-193
-206
-207
-198
-181
-160
-140
-129
-129
-141
-156
-170
-171
-163
-145
-125
-104
-93
-93
-105
-121
-135
-137
-131
-115
-96
-78
-68
-70
-85
-102
-117
-122
-117
-104
-86
-70
-61
-65
-79
-98
-112
-116
-105
-88
-66
-51
-47
-53
-71
-90
-104
-106
-98
-84
-69
-55
-53
-61
-81
-102
-117
-120
-111
-95
-75
-60
-54
-61
-79
-96
-110
-111
-102
-89
-70
-56
-53
-59
-76
-95
-107
-107
-98
-80
-60
-47
-42
-48
-65
-85
-98
-100
-93
-78
-59
-44
-39
-47
-61
-79
-89
-89
-76
-59
-42
-27
-23
-33
-50
-71
-84
-86
-75
-60
-42
-25
-20
-27
-42
-59
-69
-68
-56
-40
-20
-4
1
-7
-24
-42
-51
-50
-35
-15
7
27
37
34
19
3
-7
-5
4
22
43
60
67
63
48
29
17
12
13
21
27
31
24
7
-18
-43
-59
-61
-53
-37
-19
-5
-4
-17
-38
-61
-79
-86
-83
-71
-56
-47
-44
-55
-75
-94
-106
-106
-96
-79
-60
-44
-38
-45
-63
-80
-91
-91
-80
-63
-44
-29
-23
-30
-48
-64
-74
-73
-63
-45
-28
-14
-14
-28
-56
-93
-125
-153
-171
-181
-178
-166
-146
-120
-81
-27
55
162
289
429
572
711
842
955
1052
1135
1202
1245
1251
1207
1109
952
742
490
217
-47
-274
-451
-561
-612
-607
-564
-498
-426
-355
-289
-227
-170
-119
-78
-47
-29
-29
-44
-69
-91
-104
-102
-90
-70
-47
-28
-18
-23
-37
-50
-58
-55
-44
-25
-5
9
14
7
-8
-25
-33
-32
-18
1
21
37
43
36
19
2
-5
-3
9
28
50
68
77
72
59
46
39
44
59
80
101
119
128
125
111
99
95
101
119
144
169
191
201
200
191
182
182
194
216
246
278
304
322
327
323
318
322
337
360
390
422
450
465
466
458
449
446
452
467
487
507
521
523
512
491
467
450
442
439
441
441
434
414
379
330
283
241
210
186
171
155
138
106
67
19
-28
-66
-93
-107
-115
-119
-126
-142
-170
-203
-236
-258
-270
-270
-264
-254
-247
-250
-265
-288
-309
-321
-323
-313
-298
-280
-268
-264
-273
-292
-306
-315
-313
-301
-282
-262
-246
-238
-244
-258
-272
-278
-273
-258
-238
-216
-197
-191
-197
-211
-226
-232
-228
-214
-195
-175
-157
-151
-161
-177
-193
-202
-200
-187
-168
-149
-131
-126
-132
-146
-163
-171
-168
-156
-139
-119
-102
-98
-105
-122
-139
-146
-145
-132
-115
-98
-84
-81
-90
-106
-125
-134
-132
-121
-102
-84
-70
-66
-75
-91
-107
-116
-115
-104
-88
-70
-59
-58
-69
-89
-107
-120
-119
-110
-91
-74
-60
-58
-66
-84
-104
-115
-115
-106
-90
-74
-60
-59
-69
-85
-101
-110
-110
-98
-79
-61
-49
-48
-58
-76
-96
-106
-106
-96
-79
-61
-49
-47
-56
-74
-91
-101
-100
-89
-73
-56
-44
-43
-51
-69
-86
-96
-93
-81
-64
-47
-32
-29
-40
-58
-76
-86
-86
-71
-54
-35
-25
-25
-38
-55
-70
-75
-69
-56
-39
-22
-12
-13
-25
-44
-61
-66
-63
-47
-27
-7
8
13
6
-5
-13
-12
-2
13
32
48
57
54
42
23
9
3
7
17
29
38
39
27
2
-25
-49
-61
-63
-51
-37
-19
-10
-13
-28
-48
-66
-76
-75
-66
-55
-45
-43
-51
-70
-93
-111
-121
-117
-106
-89
-70
-59
-61
-73
-90
-104
-109
-102
-88
-69
-51
-42
-43
-55
-74
-90
-96
-91
-78
-60
-42
-33
-33
-47
-68
-88
-105
-117
-125
-134
-145
-157
-173
-187
-187
-166
-116
-38
64
186
314
440
557
664
766
868
973
1077
1165
1221
1231
1177
1055
873
640
386
131
-99
-289
-427
-512
-547
-543
-512
-458
-390
-309
-228
-152
-89
-43
-20
-20
-39
-66
-91
-105
-106
-95
-76
-58
-44
-39
-49
-64
-75
-76
-69
-53
-33
-13
-3
-4
-15
-30
-45
-47
-40
-23
-3
17
28
29
17
1
-10
-10
-2
17
38
58
70
70
58
42
28
26
33
50
73
94
111
114
106
93
84
84
94
113
134
157
172
177
170
160
152
159
175
200
228
258
278
287
286
279
277
284
303
329
360
390
412
424
424
416
415
419
435
457
482
504
519
519
508
488
472
463
463
468
476
480
473
452
417
375
337
304
283
269
256
241
218
184
136
84
36
-2
-27
-43
-53
-64
-78
-104
-139
-178
-212
-233
-242
-242
-234
-231
-229
-241
-263
-288
-309
-320
-319
-309
-293
-280
-272
-274
-287
-305
-318
-321
-314
-299
-279
-259
-248
-249
-259
-274
-288
-289
-279
-263
-242
-222
-209
-208
-219
-233
-244
-244
-234
-216
-195
-175
-162
-162
-175
-192
-206
-209
-202
-188
-170
-152
-142
-144
-156
-172
-185
-186
-177
-158
-136
-117
-107
-109
-121
-139
-152
-156
-149
-132
-114
-98
-88
-91
-105
-124
-139
-142
-137
-124
-105
-89
-79
-81
-95
-114
-127
-131
-126
-111
-95
-79
-71
-76
-91
-111
-126
-131
-125
-111
-93
-76
-69
-74
-89
-109
-125
-129
-122
-109
-90
-73
-64
-66
-83
-100
-116
-121
-115
-100
-84
-66
-59
-63
-78
-98
-111
-117
-111
-98
-79
-64
-56
-60
-75
-96
-111
-116
-109
-93
-73
-55
-45
-47
-61
-80
-93
-98
-93
-78
-60
-44
-37
-40
-55
-74
-88
-91
-85
-70
-53
-37
-28
-32
-48
-66
-80
-83
-76
-60
-42
-24
-15
-19
-35
-54
-66
-68
-58
-38
-14
11
24
28
19
3
-9
-12
-4
12
34
54
67
67
53
34
16
4
2
4
9
16
14
2
-19
-40
-58
-63
-58
-44
-28
-15
-10
-20
-40
-66
-86
-96
-94
-84
-70
-58
-51
-59
-78
-98
-116
-121
-116
-99
-83
-66
-60
-66
-81
-98
-107
-107
-96
-78
-58
-42
-33
-39
-54
-71
-84
-85
-76
-59
-42
-30
-32
-49
-81
-122
-161
-192
-208
-212
-198
-172
-136
-90
-34
41
135
253
389
536
685
829
962
1075
1165
1230
1266
1266
1222
1128
981
786
553
296
34
-203
-396
-530
-604
-621
-591
-533
-461
-391
-330
-275
-227
-181
-139
-100
-71
-51
-47
-58
-78
-98
-110
-110
-99
-79
-56
-38
-29
-34
-49
-65
-75
-73
-61
-44
-23
-5
2
-4
-19
-33
-42
-38
-25
-4
17
34
42
34
19
3
-5
-4
9
27
49
68
75
72
58
44
37
41
54
75
99
118
126
125
111
98
92
97
113
136
164
187
200
200
191
180
177
186
206
233
264
291
309
317
312
309
312
325
350
379
410
436
450
450
441
429
424
429
442
463
483
499
503
492
468
444
424
412
409
411
411
405
388
355
313
266
226
196
175
161
149
134
106
68
22
-24
-61
-85
-99
-104
-106
-114
-129
-155
-190
-223
-248
-260
-262
-253
-243
-236
-236
-249
-270
-293
-304
-305
-297
-279
-262
-248
-246
-254
-272
-289
-300
-299
-285
-265
-244
-228
-221
-226
-239
-253
-260
-255
-241
-219
-200
-182
-177
-185
-201
-217
-226
-223
-212
-192
-171
-155
-147
-153
-168
-182
-190
-185
-171
-151
-129
-111
-106
-112
-130
-146
-156
-155
-142
-124
-105
-89
-86
-94
-110
-127
-137
-136
-125
-107
-89
-73
-69
-78
-96
-114
-124
-122
-110
-91
-73
-58
-53
-63
-81
-100
-112
-114
-105
-90
-74
-63
-61
-71
-90
-110
-121
-121
-111
-95
-76
-64
-61
-71
-90
-109
-121
-121
-110
-94
-76
-63
-60
-69
-88
-105
-115
-114
-102
-86
-68
-53
-49
-56
-78
-95
-106
-106
-96
-80
-63
-49
-47
-56
-74
-93
-104
-104
-91
-75
-56
-43
-40
-50
-70
-90
-102
-101
-91
-73
-53
-38
-32
-38
-56
-73
-81
-80
-69
-49
-28
-10
-2
-5
-18
-29
-35
-29
-15
3
22
37
42
33
21
6
-2
1
11
26
39
46
39
18
-10
-38
-58
-64
-59
-45
-30
-19
-19
-30
-50
-70
-83
-85
-76
-63
-48
-38
-38
-51
-73
-91
-105
-106
-98
-83
-65
-53
-50
-59
-74
-91
-99
-98
-85
-68
-49
-35
-33
-42
-59
-76
-86
-85
-74
-56
-37
-23
-18
-28
-44
-64
-78
-89
-95
-102
-115
-132
-155
-178
-196
-193
-161
-96
-2
116
249
385
516
635
747
856
970
1083
1190
1274
1319
1309
1232
1083
876
630
370
116
-111
-298
-438
-533
-583
-598
-579
-532
-462
-379
-289
-204
-134
-83
-55
-54
-66
-85
-98
-100
-91
-74
-55
-39
-33
-40
-54
-68
-73
-69
-53
-29
-9
3
3
-8
-25
-40
-45
-38
-23
-4
14
27
26
12
-7
-20
-27
-17
0
23
47
64
67
57
43
31
28
36
53
74
97
110
113
105
92
80
78
88
108
131
157
175
182
177
167
159
160
172
195
221
248
271
282
282
278
278
287
307
333
364
391
412
420
416
407
404
411
430
456
488
518
537
541
528
508
486
471
466
466
470
471
466
447
416
376
339
309
289
274
262
247
223
187
139
85
37
-2
-27
-42
-50
-58
-71
-95
-127
-165
-197
-218
-229
-231
-228
-226
-229
-243
-265
-292
-311
-320
-318
-304
-285
-270
-262
-264
-279
-299
-314
-320
-313
-298
-278
-257
-243
-242
-250
-265
-278
-280
-274
-259
-238
-218
-204
-202
-211
-227
-238
-239
-231
-216
-195
-176
-163
-165
-175
-191
-203
-206
-198
-183
-161
-142
-129
-129
-139
-155
-168
-172
-163
-150
-130
-111
-100
-99
-112
-129
-144
-147
-141
-126
-107
-90
-78
-79
-93
-110
-125
-131
-125
-112
-95
-80
-73
-75
-89
-109
-124
-131
-126
-112
-96
-81
-73
-78
-94
-114
-132
-139
-136
-124
-107
-93
-85
-89
-104
-122
-139
-144
-137
-124
-104
-88
-76
-79
-94
-112
-127
-131
-129
-115
-100
-85
-75
-79
-93
-111
-126
-129
-121
-105
-88
-70
-61
-64
-78
-96
-110
-114
-109
-95
-78
-61
-53
-56
-71
-91
-107
-112
-106
-90
-70
-51
-40
-43
-55
-74
-88
-91
-86
-71
-53
-33
-22
-20
-30
-45
-56
-60
-54
-42
-27
-14
-9
-14
-29
-47
-59
-55
-43
-22
6
28
43
43
31
12
1
-3
4
22
43
62
70
62
42
14
-10
-28
-32
-29
-22
-13
-9
-15
-30
-49
-63
-66
-61
-49
-34
-22
-18
-29
-49
-75
-98
-110
-110
-100
-88
-74
-69
-74
-89
-107
-121
-122
-114
-98
-76
-58
-48
-49
-63
-80
-93
-96
-88
-71
-53
-35
-27
-29
-43
-60
-75
-80
-78
-69
-63
-63
-78
-109
-153
-197
-227
-232
-208
-157
-83
9
106
206
300
395
498
610
735
864
992
1106
1190
1228
1210
1135
1009
839
636
415
185
-34
-232
-395
-514
-581
-590
-549
-469
-369
-263
-168
-95
-53
-37
-40
-50
-60
-61
-59
-50
-40
-35
-39
-50
-64
-71
-70
-58
-38
-17
0
8
6
-9
-28
-42
-45
-35
-18
3
22
34
33
21
4
-8
-10
-2
17
37
54
65
63
50
34
23
23
33
52
72
92
101
103
93
79
72
73
87
108
131
152
167
170
160
148
141
145
162
189
218
247
267
273
271
263
259
267
284
310
340
371
393
405
404
399
398
407
426
452
480
504
519
522
513
498
487
486
491
506
521
529
527
509
480
446
416
394
379
369
359
344
318
277
227
175
129
95
70
54
41
24
0
-35
-76
-119
-150
-170
-177
-178
-175
-175
-185
-206
-236
-267
-289
-300
-298
-287
-273
-263
-259
-267
-284
-301
-310
-309
-298
-279
-258
-243
-237
-244
-260
-278
-289
-288
-278
-257
-237
-218
-207
-212
-222
-237
-244
-243
-232
-213
-193
-177
-170
-173
-188
-203
-211
-208
-195
-175
-152
-135
-126
-131
-149
-165
-173
-175
-165
-149
-129
-114
-107
-115
-130
-146
-155
-153
-142
-124
-104
-89
-83
-90
-105
-122
-132
-131
-120
-101
-83
-66
-63
-71
-89
-109
-121
-122
-114
-98
-80
-68
-63
-71
-89
-106
-119
-119
-109
-90
-71
-56
-51
-60
-75
-94
-105
-107
-100
-85
-70
-58
-55
-65
-83
-100
-111
-111
-102
-86
-69
-58
-55
-66
-86
-105
-119
-120
-110
-93
-74
-59
-53
-60
-76
-94
-104
-102
-93
-75
-56
-43
-39
-49
-66
-85
-98
-98
-88
-71
-51
-38
-33
-42
-58
-74
-85
-83
-71
-54
-33
-18
-12
-22
-38
-58
-66
-63
-48
-24
2
23
34
33
21
4
-4
-5
4
21
41
57
63
58
44
27
16
12
14
23
31
37
31
14
-8
-30
-44
-48
-42
-32
-20
-17
-22
-40
-68
-95
-110
-112
-104
-86
-66
-50
-47
-54
-74
-95
-109
-112
-107
-94
-79
-66
-64
-73
-90
-106
-115
-111
-99
-79
-58
-42
-38
-47
-66
-85
-95
-95
-83
-64
-44
-29
-25
-42
-70
-105
-139
-162
-177
-180
-168
-146
-119
-83
-37
29
118
231
363
507
655
800
934
1049
1146
1221
1272
1291
1263
1182
1046
855
620
358
87
-162
-367
-513
-599
-627
-607
-555
-488
-421
-361
-305
-252
-198
-149
-104
-71
-50
-47
-59
-81
-102
-114
-114
-100
-79
-55
-38
-32
-38
-53
-68
-73
-68
-51
-30
-5
13
18
12
-4
-22
-30
-28
-14
6
27
43
47
39
23
7
-2
4
19
41
64
83
88
83
68
54
52
62
84
116
150
179
196
196
184
167
155
150
152
159
166
171
165
150
131
118
116
130
156
191
230
263
286
297
297
296
302
318
343
373
404
429
441
439
430
419
416
424
441
463
486
503
511
502
482
461
446
441
444
453
465
471
466
444
409
365
320
281
241
202
160
115
60
0
-63
-117
-156
-176
-181
-177
-170
-167
-173
-192
-221
-248
-268
-277
-274
-267
-257
-250
-254
-268
-290
-311
-323
-324
-313
-297
-278
-264
-260
-269
-287
-303
-310
-306
-294
-273
-252
-234
-227
-232
-246
-258
-262
-254
-238
-216
-192
-176
-171
-176
-190
-203
-211
-204
-190
-172
-155
-144
-144
-156
-175
-192
-201
-196
-178
-153
-129
-114
-111
-120
-137
-150
-155
-147
-131
-112
-93
-84
-86
-100
-121
-139
-146
-142
-130
-112
-94
-81
-83
-93
-111
-125
-130
-124
-109
-89
-73
-63
-65
-79
-98
-112
-119
-114
-101
-85
-68
-59
-63
-78
-96
-112
-119
-112
-98
-79
-60
-49
-53
-66
-86
-104
-111
-106
-94
-76
-59
-50
-53
-66
-85
-99
-104
-95
-78
-58
-39
-28
-29
-43
-61
-75
-81
-73
-58
-40
-28
-24
-34
-56
-84
-105
-111
-105
-86
-61
-37
-19
-15
-25
-45
-61
-70
-69
-58
-42
-24
-13
-13
-23
-39
-49
-50
-39
-18
8
37
60
72
73
69
62
60
63
67
68
63
47
23
-12
-47
-74
-88
-88
-75
-59
-44
-37
-45
-66
-91
-115
-127
-127
-119
-101
-84
-69
-66
-69
-78
-80
-74
-58
-33
-8
13
23
17
-8
-40
-73
-96
-107
-107
-101
-90
-83
-85
-94
-107
-114
-112
-100
-79
-55
-35
-23
-28
-49
-80
-112
-142
-165
-181
-187
-186
-177
-162
-139
-99
-37
54
169
300
440
583
717
840
947
1043
1130
1198
1243
1249
1202
1099
934
713
453
180
-78
-292
-450
-543
-575
-555
-502
-432
-360
-289
-223
-158
-101
-50
-12
16
23
14
-9
-39
-65
-80
-84
-75
-65
-54
-48
-55
-73
-90
-104
-105
-94
-74
-50
-27
-12
-10
-19
-34
-44
-43
-30
-10
13
34
46
43
27
7
-9
-14
-7
11
32
55
73
78
74
68
62
67
79
95
114
128
130
121
101
79
64
62
75
97
125
154
177
186
186
182
181
190
208
237
268
299
320
330
329
324
322
332
350
379
412
444
468
480
478
472
468
471
486
504
526
543
552
546
526
499
472
456
446
440
436
430
414
383
342
297
257
226
205
190
180
164
139
98
47
-7
-56
-93
-115
-125
-131
-134
-144
-163
-193
-226
-252
-268
-270
-264
-253
-243
-241
-248
-265
-285
-301
-305
-300
-285
-268
-252
-246
-250
-267
-285
-300
-301
-293
-277
-255
-236
-226
-227
-238
-254
-263
-260
-248
-226
-201
-178
-168
-171
-187
-208
-226
-231
-228
-216
-197
-178
-166
-165
-172
-182
-187
-185
-171
-150
-127
-109
-100
-105
-122
-144
-160
-166
-160
-144
-122
-104
-93
-94
-107
-125
-137
-140
-130
-110
-86
-64
-53
-54
-70
-93
-111
-121
-121
-111
-99
-85
-81
-86
-101
-120
-131
-131
-120
-98
-74
-51
-40
-42
-55
-71
-84
-84
-73
-54
-34
-20
-17
-30
-58
-85
-109
-115
-104
-80
-48
-19
0
-2
-23
-53
-84
-105
-116
-115
-109
-99
-91
-93
-101
-110
-112
-106
-89
-65
-42
-24
-18
-27
-49
-76
-96
-106
-101
-86
-64
-40
-23
-18
-22
-32
-39
-38
-32
-20
-7
2
0
-13
-33
-49
-56
-48
-27
4
37
63
75
72
52
27
9
4
19
49
92
134
165
175
164
136
100
62
28
-2
-25
-43
-58
-71
-85
-91
-86
-73
-55
-37
-23
-19
-29
-54
-86
-119
-141
-149
-142
-125
-105
-85
-76
-79
-93
-107
-120
-116
-106
-88
-65
-48
-38
-40
-51
-63
-66
-60
-44
-23
-4
8
8
-5
-25
-45
-51
-47
-28
-3
18
29
23
-4
-49
-101
-149
-183
-198
-191
-165
-122
-73
-18
44
119
212
325
456
599
749
898
1032
1140
1213
1249
1242
1189
1088
939
746
522
277
26
-206
-396
-527
-586
-579
-518
-422
-313
-216
-139
-90
-68
-60
-61
-64
-66
-68
-70
-73
-80
-88
-89
-83
-69
-49
-29
-14
-7
-10
-27
-51
-73
-84
-81
-63
-35
-4
22
39
41
32
17
7
6
13
28
46
64
78
87
88
88
89
94
100
106
108
101
85
59
29
2
-14
-15
1
26
55
82
100
106
100
92
88
95
114
140
169
195
212
217
220
225
243
278
328
386
446
499
534
542
524
488
444
400
365
342
329
327
327
329
333
340
359
389
425
462
497
522
537
536
526
511
501
496
496
496
491
478
450
400
334
262
192
134
90
65
55
53
48
34
9
-23
-56
-86
-112
-135
-156
-178
-204
-236
-268
-297
-310
-310
-293
-265
-234
-206
-191
-192
-209
-234
-259
-278
-284
-278
-262
-241
-219
-203
-196
-192
-191
-187
-185
-182
-183
-188
-202
-226
-250
-273
-284
-282
-267
-244
-221
-203
-197
-208
-229
-249
-260
-252
-228
-190
-152
-122
-111
-120
-147
-183
-217
-238
-246
-236
-216
-190
-165
-147
-135
-129
-125
-120
-115
-111
-110
-106
-105
-102
-98
-83
-51
-10
32
67
85
83
54
3
-59
-119
-161
-177
-167
-136
-95
-51
-19
0
2
-10
-32
-58
-86
-114
-137
-157
-177
-197
-216
-228
-227
-208
-173
-129
-76
-27
11
33
38
29
16
2
-10
-20
-30
-45
-64
-88
-110
-126
-131
-124
-107
-88
-74
-71
-81
-101
-124
-142
-146
-135
-107
-68
-15
37
80
108
116
109
89
64
37
12
-8
-20
-25
-27
-18
3
36
70
99
115
109
79
28
-34
-101
-156
-187
-193
-172
-131
-80
-30
8
29
27
11
-13
-33
-45
-48
-40
-29
-17
-12
-19
-37
-58
-79
-99
-110
-120
-125
-131
-142
-156
-168
-178
-181
-180
-172
-160
-147
-139
-132
-129
-125
-116
-100
-78
-54
-32
-18
-14
-27
-47
-71
-95
-111
-127
-144
-166
-193
-223
-253
-269
-264
-229
-163
-65
54
189
334
483
635
789
952
1116
1273
1406
1499
1534
1495
1375
1179
917
616
302
0
-268
-486
-652
-757
-787
-770
-714
-632
-530
-423
-320
-233
-165
-117
-93
-84
-85
-81
-68
-42
-5
33
63
80
74
46
1
-45
-83
-105
-110
-98
-74
-48
-23
-2
21
50
92
141
194
238
266
264
231
169
85
-7
-93
-158
-203
-223
-223
-209
-192
-173
-156
-135
-106
-68
-24
22
67
103
128
140
143
138
138
145
160
181
206
231
248
258
258
256
249
247
253
264
281
297
307
307
294
276
254
240
235
248
272
309
350
388
415
432
436
431
420
406
399
400
415
445
483
526
565
589
592
567
514
442
356
268
189
128
92
78
84
105
131
152
164
159
140
109
67
19
-28
-71
-106
-135
-160
-178
-191
-197
-200
-196
-193
-197
-207
-228
-255
-290
-325
-357
-384
-400
-402
-396
-384
-367
-351
-335
-318
-300
-280
-258
-237
-218
-208
-207
-218
-237
-259
-278
-288
-290
-284
-270
-253
-234
-223
-221
-226
-237
-250
-263
-274
-280
-285
-285
-280
-274
-263
-247
-222
-191
-153
-112
-70
-33
0
19
28
23
6
-19
-53
-89
-125
-156
-180
-192
-192
-180
-161
-139
-119
-101
-94
-95
-105
-124
-146
-170
-186
-195
-196
-186
-170
-150
-127
-106
-88
-69
-55
-45
-42
-45
-54
-69
-91
-116
-141
-162
-175
-178
-170
-152
-129
-101
-75
-51
-30
-13
-2
6
3
-9
-32
-64
-96
-131
-158
-177
-186
-181
-170
-153
-135
-120
-106
-96
-86
-74
-60
-45
-30
-18
-7
1
7
9
8
7
2
-4
-8
-12
-13
-12
-7
1
13
26
42
57
65
68
64
52
32
11
-8
-18
-20
-13
-4
3
4
-2
-19
-39
-60
-80
-93
-99
-100
-98
-96
-96
-98
-105
-107
-111
-110
-105
-96
-86
-75
-69
-65
-64
-69
-74
-80
-86
-88
-88
-84
-75
-66
-56
-48
-42
-34
-28
-20
-12
-3
3
4
-2
-14
-32
-53
-76
-101
-125
-145
-152
-147
-127
-86
-28
49
145
253
374
503
635
769
899
1024
1139
1237
1310
1347
1335
1271
1144
965
738
482
220
-29
-244
-417
-539
-611
-636
-621
-578
-514
-438
-357
-278
-206
-144
-94
-55
-29
-14
-7
-7
-7
-5
-2
6
14
21
23
21
13
7
4
8
13
21
29
37
47
55
65
79
95
111
124
131
128
115
97
72
53
43
50
73
111
160
208
247
269
267
242
201
151
99
58
29
14
14
27
44
68
94
120
148
169
184
187
185
177
169
166
179
208
256
313
370
422
457
470
457
426
386
348
323
314
325
353
385
417
441
457
466
476
486
497
511
522
528
524
511
491
467
450
440
437
445
456
468
477
480
471
457
441
425
409
389
360
319
271
215
156
100
54
19
-4
-19
-27
-33
-42
-55
-71
-90
-106
-120
-131
-139
-144
-150
-156
-165
-172
-177
-181
-177
-172
-165
-160
-157
-161
-167
-170
-163
-146
-122
-95
-71
-58
-56
-68
-90
-114
-129
-131
-115
-84
-44
-4
24
34
26
1
-33
-65
-88
-102
-106
-102
-94
-86
-80
-73
-59
-40
-17
9
32
48
52
43
26
6
-9
-17
-12
3
23
44
65
82
90
97
99
103
108
110
111
108
101
88
75
65
63
72
90
110
130
140
138
119
90
55
24
7
2
9
27
48
67
80
84
83
82
80
83
89
95
103
108
109
109
109
114
125
144
167
196
227
256
276
279
268
243
212
175
140
108
84
64
50
46
47
59
84
118
157
197
235
263
278
279
271
257
245
233
227
221
212
199
175
145
111
83
64
57
59
67
82
97
109
121
130
140
150
157
162
162
156
148
136
126
119
118
119
124
128
126
119
103
79
49
19
-5
-23
-30
-27
-14
8
37
64
87
105
123
136
149
156
162
161
151
133
103
69
39
19
13
22
49
97
165
247
342
447
564
690
822
960
1099
1237
1361
1462
1531
1554
1529
1448
1312
1119
880
611
334
70
-160
-338
-448
-491
-473
-408
-316
-218
-130
-65
-28
-17
-24
-39
-51
-56
-51
-40
-24
-9
4
24
55
99
156
217
271
307
315
297
258
210
174
150
148
161
185
212
233
242
236
218
199
179
165
157
152
151
148
138
124
110
103
104
118
140
170
200
227
248
271
298
338
394
457
517
559
568
539
472
380
278
187
121
88
87
111
152
196
236
266
294
325
369
425
491
563
635
695
733
746
733
705
667
629
594
569
553
541
528
516
506
507
523
550
585
615
635
635
610
565
517
478
462
471
496
528
553
552
521
457
375
294
225
179
159
160
179
208
241
269
292
305
308
293
254
194
113
14
-91
-193
-274
-321
-333
-310
-264
-208
-155
-117
-101
-106
-121
-130
-122
-99
-63
-19
19
41
38
7
-35
-74
-100
-111
-107
-96
-84
-79
-88
-104
-119
-124
-110
-81
-40
6
47
75
87
87
83
90
111
140
164
174
159
115
44
-38
-117
-172
-195
-181
-141
-86
-30
14
34
29
11
-8
-17
-13
4
31
57
72
70
54
31
9
1
6
24
52
78
93
90
70
46
24
17
29
57
94
131
157
162
146
111
74
41
16
6
9
23
39
50
53
55
58
65
74
84
89
89
80
62
41
27
27
46
79
116
155
182
191
175
145
114
93
87
93
109
125
133
128
105
73
46
31
34
52
77
103
116
115
94
60
26
3
0
14
41
72
98
106
100
75
49
28
18
21
31
42
48
43
22
-8
-34
-48
-47
-30
-3
24
44
50
41
18
-2
-7
7
37
74
110
135
139
118
82
38
3
-19
-30
-35
-38
-48
-68
-101
-134
-150
-134
-80
9
128
266
409
549
680
805
940
1088
1248
1410
1552
1649
1676
1613
1456
1215
917
598
283
0
-236
-415
-542
-617
-653
-653
-617
-550
-458
-356
-254
-166
-99
-60
-51
-56
-68
-69
-56
-30
1
29
46
43
22
-9
-38
-48
-40
-15
18
54
79
85
73
49
28
18
26
48
77
106
124
121
100
67
37
18
19
37
67
98
125
136
133
118
100
92
95
110
131
154
170
174
162
144
129
128
141
170
203
237
259
264
251
227
205
196
202
228
266
304
335
350
347
332
314
304
308
322
345
373
398
414
419
415
412
416
430
449
473
496
511
516
506
493
482
476
477
483
488
487
477
453
421
381
344
315
298
289
287
284
276
257
225
182
138
95
60
32
9
-9
-28
-53
-81
-114
-141
-157
-163
-161
-155
-149
-145
-152
-172
-198
-224
-244
-255
-254
-248
-237
-224
-218
-217
-221
-223
-226
-219
-211
-200
-188
-181
-177
-180
-182
-185
-181
-176
-170
-161
-156
-152
-157
-167
-178
-188
-193
-191
-185
-176
-163
-153
-147
-146
-146
-145
-140
-129
-114
-99
-84
-74
-71
-76
-86
-95
-102
-104
-102
-99
-96
-95
-98
-104
-112
-120
-121
-119
-111
-102
-91
-84
-81
-84
-88
-94
-95
-94
-89
-83
-76
-73
-75
-83
-94
-101
-106
-106
-100
-94
-85
-81
-81
-86
-93
-98
-98
-91
-78
-59
-39
-20
-9
-3
-4
-8
-13
-15
-18
-18
-20
-24
-30
-39
-47
-50
-50
-44
-35
-25
-19
-17
-23
-34
-54
-70
-83
-86
-83
-74
-65
-60
-61
-69
-79
-89
-96
-99
-100
-98
-94
-93
-95
-102
-114
-126
-136
-141
-144
-142
-141
-141
-141
-142
-147
-149
-149
-144
-135
-125
-114
-104
-99
-96
-101
-102
-106
-104
-101
-96
-89
-84
-81
-81
-88
-94
-100
-107
-115
-127
-147
-173
-203
-233
-252
-257
-238
-195
-127
-38
69
189
310
432
555
680
805
930
1046
1149
1223
1258
1240
1161
1023
830
600
348
90
-153
-364
-528
-640
-697
-704
-670
-602
-519
-430
-346
-274
-217
-178
-152
-139
-129
-124
-115
-109
-102
-98
-98
-104
-112
-124
-135
-141
-141
-135
-126
-116
-104
-96
-89
-84
-79
-73
-64
-54
-44
-37
-33
-37
-47
-56
-66
-75
-76
-75
-68
-56
-44
-35
-28
-22
-14
-5
4
13
21
26
27
23
17
11
9
13
23
37
53
68
84
97
105
113
119
126
134
144
155
166
177
187
197
208
217
226
237
253
269
286
302
315
328
339
350
363
376
390
401
410
416
420
417
410
401
393
384
374
361
349
333
315
293
271
248
230
215
202
190
172
151
123
90
54
17
-17
-47
-75
-100
-124
-147
-171
-196
-217
-232
-243
-248
-250
-252
-255
-263
-275
-293
-311
-328
-341
-349
-350
-350
-346
-344
-340
-340
-336
-331
-326
-319
-311
-303
-295
-289
-285
-285
-285
-285
-283
-280
-277
-270
-265
-262
-262
-265
-268
-270
-270
-270
-272
-273
-274
-274
-272
-272
-270
-267
-259
-248
-236
-222
-206
-191
-178
-172
-170
-170
-173
-180
-187
-195
-203
-211
-218
-222
-222
-219
-212
-201
-185
-170
-157
-150
-146
-150
-153
-161
-165
-170
-171
-171
-167
-165
-161
-156
-151
-145
-135
-126
-117
-112
-110
-114
-121
-130
-141
-152
-163
-170
-176
-173
-165
-153
-140
-127
-115
-101
-88
-74
-60
-47
-39
-34
-35
-42
-49
-55
-60
-61
-61
-61
-64
-73
-84
-99
-112
-124
-131
-132
-131
-129
-125
-121
-121
-122
-124
-124
-125
-124
-126
-126
-131
-136
-145
-156
-166
-175
-182
-183
-185
-182
-180
-177
-176
-177
-177
-178
-175
-168
-158
-150
-141
-134
-131
-131
-132
-136
-140
-140
-136
-130
-122
-114
-105
-99
-96
-96
-99
-105
-116
-131
-151
-176
-202
-227
-242
-239
-218
-177
-116
-39
52
152
259
375
495
624
756
890
1018
1134
1223
1276
1279
1225
1109
936
716
461
191
-75
-318
-517
-663
-750
-777
-748
-680
-584
-479
-375
-285
-212
-160
-127
-109
-98
-93
-90
-91
-91
-95
-102
-112
-126
-140
-147
-150
-145
-132
-115
-93
-68
-42
-14
14
44
74
104
133
154
165
161
143
111
72
36
7
-10
-12
-4
4
8
1
-19
-50
-84
-120
-149
-166
-170
-158
-135
-104
-69
-37
-5
21
43
63
85
111
143
179
216
252
282
302
308
302
284
262
236
217
212
226
264
323
393
460
514
546
548
522
473
414
358
319
299
302
320
345
371
390
399
400
394
388
386
393
412
445
482
518
543
550
533
493
437
375
317
267
231
206
187
166
140
104
63
23
-13
-39
-54
-60
-61
-64
-80
-112
-157
-212
-269
-319
-354
-370
-367
-350
-326
-301
-280
-264
-247
-221
-181
-127
-63
1
52
75
62
8
-81
-193
-308
-413
-492
-535
-544
-517
-462
-386
-300
-214
-144
-93
-73
-80
-114
-163
-217
-265
-303
-319
-314
-287
-242
-192
-144
-105
-85
-81
-89
-96
-98
-84
-56
-23
7
23
18
-10
-58
-116
-183
-239
-268
-283
-287
-287
-282
-275
-267
-253
-234
-206
-170
-132
-98
-70
-59
-61
-78
-99
-116
-120
-106
-74
-29
21
60
79
68
29
-33
-110
-190
-260
-315
-344
-346
-323
-279
-219
-153
-90
-37
0
17
22
16
7
2
1
4
9
9
-2
-27
-61
-100
-135
-157
-160
-140
-102
-59
-17
6
4
-25
-79
-144
-209
-267
-304
-320
-315
-294
-262
-226
-192
-168
-156
-155
-163
-180
-195
-206
-206
-195
-170
-140
-106
-79
-60
-56
-65
-89
-121
-157
-187
-211
-221
-221
-212
-195
-180
-166
-158
-156
-156
-156
-155
-150
-145
-141
-147
-160
-182
-208
-231
-243
-234
-202
-140
-53
55
179
309
436
559
671
776
876
971
1060
1139
1195
1216
1191
1110
972
777
541
277
8
-244
-462
-629
-734
-779
-767
-709
-621
-518
-415
-320
-243
-187
-149
-126
-116
-112
-116
-117
-119
-117
-116
-116
-112
-111
-107
-104
-96
-88
-76
-69
-66
-66
-73
-81
-89
-96
-98
-96
-89
-78
-66
-55
-44
-33
-22
-10
1
12
22
28
32
32
28
26
24
27
32
38
46
52
53
50
44
37
32
28
28
34
44
57
67
78
89
98
108
120
134
151
170
185
197
206
207
211
212
216
226
238
254
272
289
304
317
327
335
344
355
366
379
391
401
407
411
410
405
400
394
384
374
363
350
334
318
299
279
258
236
215
194
170
146
121
95
67
39
12
-13
-38
-59
-80
-101
-121
-145
-166
-190
-211
-231
-248
-265
-280
-295
-311
-325
-338
-345
-345
-340
-330
-319
-304
-294
-288
-285
-284
-285
-290
-294
-295
-299
-300
-303
-305
-305
-304
-301
-298
-292
-284
-277
-269
-262
-259
-257
-257
-255
-253
-249
-242
-232
-222
-213
-204
-197
-192
-191
-190
-188
-190
-187
-186
-186
-182
-180
-176
-172
-170
-167
-166
-165
-163
-163
-165
-165
-166
-166
-163
-161
-160
-156
-152
-151
-150
-149
-149
-147
-147
-144
-139
-134
-129
-126
-124
-122
-122
-121
-121
-117
-110
-102
-95
-86
-79
-75
-71
-71
-74
-76
-76
-76
-74
-66
-56
-47
-38
-32
-28
-30
-37
-48
-63
-78
-93
-107
-119
-125
-126
-125
-122
-117
-116
-115
-119
-126
-136
-147
-157
-163
-170
-172
-176
-176
-176
-172
-170
-166
-161
-155
-149
-139
-129
-120
-112
-105
-99
-95
-91
-86
-85
-83
-83
-85
-86
-91
-93
-96
-96
-96
-94
-93
-95
-98
-102
-110
-124
-141
-167
-196
-226
-252
-270
-275
-263
-232
-178
-106
-15
92
211
337
463
588
710
827
939
1039
1124
1179
1194
1156
1063
912
713
483
235
-10
-236
-425
-566
-653
-690
-680
-635
-566
-483
-397
-318
-247
-191
-149
-119
-101
-93
-89
-86
-88
-88
-86
-81
-78
-71
-68
-66
-63
-64
-64
-65
-66
-66
-65
-63
-61
-59
-56
-56
-55
-51
-48
-43
-34
-24
-17
-8
-3
4
9
13
17
22
26
28
32
33
36
38
42
46
48
52
54
55
57
58
59
60
63
68
74
83
90
99
106
114
123
135
149
165
180
196
210
223
233
243
252
263
273
286
298
310
323
338
351
364
375
386
394
399
402
405
406
404
399
394
388
380
373
368
360
353
343
329
314
297
276
252
223
196
165
136
105
77
50
26
2
-22
-43
-65
-89
-111
-134
-153
-171
-186
-198
-207
-213
-221
-224
-231
-238
-247
-254
-260
-265
-267
-265
-263
-260
-260
-262
-267
-270
-277
-280
-285
-287
-287
-287
-282
-280
-278
-275
-272
-268
-263
-257
-250
-246
-242
-241
-241
-241
-244
-246
-246
-244
-239
-236
-229
-226
-221
-217
-216
-213
-212
-211
-207
-204
-202
-200
-197
-200
-201
-203
-206
-204
-201
-201
-197
-192
-187
-182
-175
-166
-158
-147
-137
-127
-117
-110
-104
-100
-96
-96
-96
-96
-96
-96
-93
-89
-81
-71
-64
-51
-40
-28
-17
-10
-7
-5
-9
-15
-23
-29
-32
-32
-32
-28
-27
-25
-28
-34
-47
-58
-71
-85
-96
-102
-106
-105
-101
-96
-91
-86
-84
-84
-86
-91
-99
-106
-115
-124
-135
-145
-155
-163
-168
-171
-170
-162
-153
-141
-131
-120
-114
-110
-109
-110
-112
-116
-116
-117
-117
-115
-111
-107
-102
-100
-96
-95
-94
-91
-93
-93
-91
-93
-96
-106
-121
-145
-173
-204
-233
-254
-262
-249
-216
-162
-86
7
113
228
348
468
589
708
827
941
1047
1135
1197
1216
1184
1092
946
751
527
282
41
-181
-369
-512
-606
-652
-652
-617
-555
-477
-397
-319
-252
-198
-161
-136
-124
-120
-121
-124
-127
-127
-126
-124
-119
-114
-107
-102
-96
-91
-86
-81
-74
-69
-66
-63
-61
-58
-54
-47
-40
-33
-25
-18
-12
-7
0
2
7
8
13
17
19
23
27
28
29
32
33
33
36
41
44
48
52
57
59
63
67
74
80
90
99
111
121
133
141
150
156
165
171
180
190
197
207
216
227
242
256
269
283
297
308
318
325
332
337
339
342
344
345
345
347
347
349
353
358
364
366
370
369
364
355
345
334
322
307
293
276
258
240
217
196
175
151
128
103
77
49
23
-3
-27
-49
-71
-91
-110
-129
-145
-157
-168
-176
-183
-188
-193
-196
-198
-201
-202
-204
-207
-209
-212
-217
-221
-223
-224
-223
-221
-218
-214
-211
-209
-207
-207
-208
-209
-208
-207
-206
-201
-195
-188
-182
-180
-176
-175
-173
-172
-170
-166
-161
-156
-152
-147
-144
-141
-137
-136
-134
-132
-132
-134
-136
-136
-136
-136
-136
-132
-130
-127
-126
-126
-126
-126
-127
-127
-130
-131
-131
-132
-134
-132
-131
-127
-124
-117
-111
-106
-102
-101
-100
-99
-98
-96
-95
-91
-86
-81
-73
-65
-58
-51
-48
-44
-43
-43
-43
-42
-38
-35
-30
-27
-27
-32
-40
-53
-66
-80
-90
-101
-107
-114
-117
-121
-125
-127
-130
-132
-132
-136
-140
-144
-149
-155
-162
-167
-171
-171
-172
-171
-171
-166
-166
-165
-165
-163
-166
-166
-167
-168
-167
-166
-165
-161
-158
-156
-152
-151
-147
-146
-144
-141
-137
-134
-130
-125
-120
-117
-117
-122
-132
-149
-173
-202
-233
-263
-283
-289
-274
-238
-178
-96
6
123
247
376
502
626
746
863
975
1075
1156
1207
1212
1167
1062
902
700
467
222
-17
-228
-405
-533
-611
-641
-626
-580
-510
-432
-356
-288
-231
-190
-161
-146
-139
-136
-137
-140
-141
-142
-142
-142
-142
-142
-141
-139
-134
-130
-126
-122
-119
-116
-111
-109
-104
-100
-96
-93
-88
-84
-76
-69
-60
-50
-43
-35
-30
-28
-27
-27
-27
-28
-28
-28
-25
-22
-15
-8
0
6
14
21
27
34
41
47
54
60
65
72
78
83
89
95
103
110
120
131
145
157
169
179
189
199
207
218
228
240
248
257
263
267
272
278
287
294
304
315
328
340
350
360
366
371
371
371
366
363
358
353
345
334
320
303
283
261
237
215
191
167
144
119
94
69
44
19
-4
-27
-49
-73
-96
-121
-145
-166
-182
-196
-207
-216
-224
-233
-242
-250
-259
-265
-272
-275
-277
-278
-277
-277
-275
-275
-275
-275
-275
-275
-273
-270
-265
-260
-255
-250
-244
-239
-234
-229
-224
-221
-217
-214
-211
-208
-206
-202
-200
-195
-192
-190
-187
-182
-178
-173
-170
-166
-161
-158
-155
-151
-149
-146
-144
-142
-141
-141
-140
-140
-137
-137
-136
-136
-135
-132
-130
-126
-122
-120
-116
-116
-116
-116
-116
-116
-116
-115
-112
-110
-106
-106
-105
-106
-107
-110
-111
-111
-111
-111
-111
-110
-107
-106
-101
-95
-86
-75
-63
-51
-42
-33
-28
-27
-27
-28
-29
-32
-29
-25
-19
-13
-7
-3
-8
-15
-29
-47
-61
-75
-85
-90
-91
-91
-88
-88
-86
-89
-94
-101
-109
-117
-126
-134
-141
-146
-151
-153
-156
-158
-158
-156
-152
-151
-146
-144
-141
-137
-132
-127
-124
-120
-117
-115
-116
-112
-111
-107
-102
-96
-90
-85
-81
-78
-75
-74
-75
-81
-91
-109
-131
-160
-192
-227
-255
-272
-273
-254
-211
-146
-58
47
166
293
425
559
695
829
957
1077
1179
1252
1281
1258
1177
1034
840
608
354
100
-132
-326
-468
-554
-584
-570
-518
-447
-365
-287
-217
-163
-126
-106
-98
-101
-110
-122
-135
-142
-146
-146
-141
-135
-126
-115
-107
-99
-90
-80
-73
-66
-61
-58
-56
-53
-54
-54
-55
-55
-54
-53
-53
-51
-51
-50
-49
-47
-44
-39
-33
-27
-19
-13
-8
-3
1
3
7
9
17
24
31
39
47
53
62
65
73
80
88
95
103
110
118
124
134
143
151
162
172
184
195
205
217
231
247
263
279
297
314
329
344
358
371
380
386
390
390
386
385
384
381
384
386
390
394
396
396
396
394
384
373
358
339
317
297
274
252
231
211
190
167
144
116
83
52
17
-18
-51
-81
-109
-134
-156
-177
-195
-212
-226
-237
-244
-250
-255
-262
-267
-273
-282
-288
-294
-295
-297
-295
-292
-290
-289
-289
-290
-290
-289
-285
-282
-277
-269
-263
-258
-257
-255
-255
-258
-259
-258
-255
-249
-243
-232
-222
-213
-204
-198
-192
-187
-182
-178
-173
-168
-165
-160
-157
-155
-153
-151
-153
-156
-157
-161
-161
-162
-161
-161
-160
-156
-152
-147
-142
-136
-132
-131
-131
-134
-137
-141
-145
-146
-145
-141
-139
-132
-129
-126
-124
-122
-122
-121
-119
-116
-111
-106
-102
-99
-96
-93
-88
-83
-80
-75
-73
-69
-66
-64
-63
-61
-59
-55
-51
-47
-42
-35
-29
-23
-17
-12
-9
-13
-18
-25
-37
-47
-56
-64
-70
-73
-76
-78
-81
-86
-91
-96
-102
-106
-111
-111
-112
-115
-116
-120
-122
-127
-132
-135
-135
-130
-125
-117
-111
-107
-106
-106
-112
-119
-125
-130
-135
-136
-136
-135
-131
-126
-122
-117
-114
-111
-111
-111
-111
-112
-117
-127
-146
-171
-201
-233
-262
-277
-278
-258
-216
-151
-64
42
165
296
431
568
701
833
960
1078
1181
1261
1303
1296
1231
1109
935
716
472
220
-23
-236
-407
-530
-599
-617
-593
-535
-456
-371
-289
-219
-161
-121
-96
-84
-85
-90
-100
-111
-121
-127
-130
-127
-124
-116
-107
-98
-89
-81
-75
-71
-68
-65
-61
-59
-56
-54
-51
-47
-42
-37
-32
-25
-19
-14
-8
-4
-2
-2
-2
-2
-2
-2
1
3
8
9
9
8
7
6
6
8
16
23
33
44
54
64
73
82
90
98
105
114
120
128
134
140
146
154
160
165
175
184
192
205
216
230
245
259
273
281
287
286
286
284
287
289
296
305
317
330
342
350
359
365
365
363
358
349
339
328
315
300
287
269
254
237
218
199
177
155
130
104
77
48
19
-7
-34
-59
-80
-98
-111
-125
-137
-151
-166
-182
-196
-211
-223
-232
-238
-242
-247
-249
-250
-252
-254
-254
-255
-255
-252
-250
-246
-241
-236
-231
-229
-228
-226
-224
-221
-219
-214
-211
-206
-203
-200
-197
-193
-190
-186
-181
-177
-173
-171
-168
-167
-167
-166
-163
-158
-153
-150
-146
-142
-139
-136
-134
-131
-129
-126
-122
-121
-121
-121
-121
-121
-121
-121
-121
-119
-117
-115
-114
-114
-115
-112
-111
-111
-111
-111
-111
-116
-121
-125
-127
-130
-131
-131
-130
-127
-125
-120
-115
-109
-102
-95
-88
-80
-70
-59
-47
-35
-27
-20
-18
-19
-22
-27
-27
-27
-25
-24
-22
-22
-28
-35
-47
-60
-75
-90
-101
-110
-117
-121
-121
-121
-121
-120
-117
-119
-121
-121
-122
-126
-127
-131
-132
-134
-135
-136
-137
-140
-140
-139
-137
-134
-130
-125
-122
-116
-115
-112
-111
-109
-107
-106
-104
-102
-101
-100
-99
-98
-96
-98
-99
-101
-110
-122
-142
-168
-200
-233
-262
-282
-287
-275
-246
-192
-120
-29
78
196
322
452
587
720
854
981
1097
1189
1245
1252
1203
1097
934
726
490
241
1
-214
-386
-509
-578
-594
-570
-514
-438
-359
-287
-223
-175
-145
-129
-125
-125
-129
-134
-136
-136
-136
-132
-129
-125
-120
-114
-109
-105
-101
-96
-91
-86
-81
-79
-74
-69
-65
-60
-56
-54
-54
-54
-56
-56
-60
-61
-61
-59
-54
-50
-43
-35
-30
-24
-18
-12
-5
0
6
12
18
26
33
41
46
53
57
63
70
75
83
90
99
108
115
124
133
143
152
165
177
191
203
216
227
238
247
256
264
271
278
286
293
302
310
322
333
347
359
369
380
386
390
390
386
381
376
370
365
358
351
343
333
322
308
291
273
256
235
212
189
164
138
109
80
52
22
-3
-29
-53
-75
-96
-114
-131
-147
-161
-173
-185
-196
-208
-219
-232
-242
-253
-260
-267
-273
-277
-280
-280
-280
-280
-275
-272
-267
-264
-260
-259
-255
-253
-252
-250
-246
-244
-239
-234
-231
-223
-218
-213
-211
-206
-202
-200
-196
-193
-191
-188
-186
-182
-181
-177
-176
-175
-173
-172
-172
-171
-171
-168
-166
-162
-158
-156
-155
-152
-151
-151
-147
-145
-141
-137
-136
-136
-137
-139
-141
-145
-150
-152
-156
-158
-161
-160
-157
-156
-152
-150
-145
-140
-135
-131
-129
-126
-124
-121
-117
-116
-112
-107
-105
-100
-94
-88
-81
-78
-73
-71
-70
-68
-65
-63
-59
-56
-51
-48
-47
-43
-43
-45
-50
-58
-68
-79
-90
-100
-109
-115
-121
-126
-127
-130
-131
-131
-131
-131
-135
-137
-141
-145
-146
-146
-146
-146
-142
-141
-139
-136
-135
-131
-127
-124
-121
-117
-115
-111
-112
-111
-110
-106
-104
-101
-98
-96
-93
-91
-89
-88
-86
-86
-86
-94
-109
-132
-165
-200
-236
-263
-278
-274
-249
-202
-132
-42
69
194
327
463
601
737
869
997
1111
1203
1257
1266
1217
1113
953
751
517
274
37
-173
-339
-452
-512
-517
-481
-416
-338
-257
-183
-124
-81
-56
-44
-44
-50
-60
-70
-81
-85
-86
-84
-80
-73
-66
-59
-53
-47
-42
-38
-34
-34
-33
-32
-33
-30
-27
-27
-22
-19
-15
-13
-9
-5
-3
1
4
8
14
17
24
27
33
38
44
50
55
62
69
74
82
85
88
89
92
94
98
103
109
115
124
133
141
151
162
174
187
200
211
221
230
240
247
254
267
281
296
309
323
335
344
351
358
361
365
369
373
376
381
385
389
393
395
395
396
395
391
391
389
386
383
374
363
347
328
308
287
264
241
216
192
169
144
119
93
65
38
14
-9
-32
-50
-68
-84
-99
-112
-126
-140
-155
-170
-183
-196
-209
-221
-229
-236
-241
-242
-242
-242
-239
-237
-233
-231
-227
-224
-222
-221
-216
-212
-208
-206
-202
-200
-196
-196
-196
-196
-195
-192
-192
-191
-187
-183
-180
-173
-168
-166
-162
-161
-158
-157
-156
-155
-151
-149
-146
-144
-141
-137
-136
-135
-136
-136
-136
-136
-136
-134
-131
-130
-127
-127
-126
-126
-124
-122
-122
-121
-121
-121
-121
-120
-119
-119
-117
-116
-114
-112
-109
-106
-101
-98
-94
-90
-86
-84
-80
-76
-73
-68
-63
-59
-56
-51
-48
-45
-42
-40
-37
-34
-32
-29
-27
-24
-19
-14
-9
-5
-4
-7
-12
-18
-25
-34
-43
-50
-56
-61
-66
-71
-75
-76
-80
-81
-83
-86
-89
-93
-98
-102
-109
-115
-121
-126
-126
-126
-126
-121
-117
-116
-111
-109
-104
-100
-94
-88
-81
-78
-74
-73
-74
-78
-80
-81
-83
-83
-81
-81
-81
-88
-99
-117
-145
-176
-209
-237
-254
-257
-239
-200
-137
-54
53
172
305
442
582
721
858
991
1115
1223
1304
1339
1322
1241
1100
907
675
422
167
-66
-267
-417
-518
-566
-566
-527
-463
-384
-304
-231
-168
-122
-91
-74
-68
-69
-73
-79
-84
-86
-88
-89
-88
-85
-81
-81
-78
-73
-69
-65
-60
-55
-49
-45
-40
-34
-30
-27
-27
-27
-27
-28
-28
-27
-23
-18
-9
-3
4
9
13
17
18
22
23
28
31
37
44
50
58
65
72
78
83
89
95
98
104
106
110
113
119
124
131
140
150
159
170
179
189
197
207
216
226
236
246
256
267
278
288
299
307
317
324
332
338
344
350
355
359
363
366
369
371
374
375
376
376
375
370
364
354
343
329
314
298
281
262
241
216
191
162
135
106
82
57
33
12
-9
-30
-50
-70
-90
-107
-124
-139
-152
-166
-177
-187
-197
-203
-208
-211
-213
-213
-213
-212
-211
-211
-211
-211
-211
-211
-211
-206
-204
-202
-201
-196
-195
-191
-190
-190
-191
-190
-191
-191
-187
-186
-182
-180
-175
-172
-171
-168
-167
-166
-166
-166
-165
-161
-157
-151
-147
-144
-141
-141
-144
-146
-149
-151
-151
-151
-147
-145
-142
-141
-139
-137
-137
-139
-139
-141
-141
-141
-141
-141
-141
-141
-141
-141
-137
-135
-131
-126
-120
-114
-106
-100
-93
-86
-83
-78
-74
-70
-66
-61
-56
-51
-48
-44
-44
-47
-48
-51
-51
-50
-49
-49
-50
-53
-56
-61
-64
-66
-66
-66
-68
-70
-75
-83
-90
-98
-105
-111
-115
-121
-126
-131
-132
-136
-140
-141
-141
-140
-137
-132
-127
-122
-119
-116
-112
-112
-112
-115
-116
-117
-117
-116
-116
-112
-111
-111
-107
-105
-100
-94
-90
-86
-90
-100
-117
-146
-177
-211
-239
-257
-259
-241
-202
-141
-61
37
150
274
404
537
669
799
925
1041
1140
1212
1248
1235
1170
1049
883
679
456
228
13
-175
-324
-430
-489
-505
-484
-436
-372
-301
-233
-175
-127
-93
-70
-59
-55
-56
-60
-65
-70
-75
-79
-81
-80
-75
-71
-65
-60
-56
-56
-56
-56
-58
-56
-53
-48
-42
-34
-27
-22
-17
-15
-14
-13
-12
-12
-10
-9
-8
-7
-4
0
4
9
14
19
24
27
31
33
33
36
38
41
44
48
52
53
58
60
67
74
84
97
108
120
133
143
151
159
165
171
179
185
194
203
213
223
236
245
253
261
267
274
281
288
294
303
310
318
325
330
337
342
345
347
348
347
344
339
333
324
314
304
291
274
257
238
217
197
176
155
134
114
95
75
55
33
11
-10
-33
-55
-75
-94
-110
-125
-137
-146
-153
-160
-166
-170
-172
-176
-181
-185
-188
-193
-200
-201
-204
-206
-206
-206
-206
-204
-201
-197
-196
-195
-192
-191
-188
-186
-182
-178
-176
-172
-168
-165
-160
-153
-149
-144
-141
-140
-139
-141
-142
-146
-147
-147
-149
-147
-146
-146
-144
-141
-141
-141
-141
-141
-141
-141
-139
-137
-135
-131
-130
-129
-129
-131
-131
-134
-135
-136
-136
-136
-139
-140
-139
-134
-129
-121
-112
-104
-93
-84
-74
-65
-55
-49
-43
-38
-37
-35
-37
-42
-45
-49
-53
-53
-53
-48
-43
-38
-37
-34
-37
-42
-49
-56
-63
-68
-70
-71
-70
-68
-65
-61
-63
-66
-70
-78
-90
-102
-116
-127
-140
-149
-155
-158
-161
-158
-157
-156
-155
-153
-152
-151
-147
-141
-132
-126
-117
-110
-105
-101
-101
-101
-101
-101
-101
-101
-100
-96
-96
-95
-99
-107
-121
-145
-172
-204
-236
-262
-277
-273
-248
-201
-127
-34
77
200
329
461
592
721
847
965
1072
1156
1205
1207
1156
1048
890
692
471
240
18
-180
-341
-459
-530
-556
-540
-496
-431
-354
-280
-211
-153
-107
-78
-58
-51
-53
-58
-65
-74
-80
-86
-91
-94
-98
-102
-105
-106
-106
-101
-99
-94
-90
-85
-83
-79
-75
-73
-71
-68
-63
-53
-42
-30
-19
-7
2
9
13
13
6
-5
-19
-37
-51
-65
-75
-78
-74
-66
-53
-34
-15
6
27
48
67
83
95
105
111
114
118
118
120
125
133
141
154
169
184
196
207
213
217
217
217
215
211
210
211
215
220
228
238
249
259
269
277
282
287
292
297
304
312
318
323
327
325
322
318
312
304
296
286
272
256
236
213
190
165
141
119
98
79
62
43
27
13
1
-7
-12
-14
-17
-24
-33
-48
-68
-94
-120
-149
-176
-202
-224
-242
-253
-262
-262
-259
-250
-239
-223
-207
-191
-175
-158
-145
-132
-121
-116
-117
-125
-139
-157
-178
-197
-213
-224
-232
-231
-227
-219
-208
-197
-186
-176
-168
-163
-160
-156
-156
-156
-156
-156
-157
-157
-158
-157
-156
-156
-155
-152
-151
-150
-146
-142
-139
-135
-131
-130
-130
-131
-131
-132
-132
-131
-130
-127
-126
-122
-120
-116
-114
-111
-107
-106
-101
-98
-93
-88
-81
-76
-71
-66
-65
-63
-61
-61
-58
-54
-50
-45
-42
-39
-39
-44
-50
-59
-69
-80
-88
-94
-102
-109
-114
-119
-122
-126
-127
-130
-129
-129
-127
-127
-131
-135
-140
-146
-152
-157
-161
-165
-166
-166
-167
-166
-161
-157
-152
-149
-146
-145
-144
-145
-146
-145
-145
-144
-142
-141
-137
-136
-135
-135
-137
-144
-157
-178
-206
-238
-269
-295
-309
-304
-279
-231
-161
-69
42
164
298
434
570
706
838
963
1074
1161
1212
1215
1159
1049
886
684
456
221
-4
-202
-360
-469
-528
-540
-513
-457
-386
-311
-242
-185
-141
-115
-101
-98
-104
-112
-122
-129
-131
-131
-127
-121
-114
-105
-99
-91
-86
-85
-83
-81
-78
-73
-70
-65
-61
-55
-50
-45
-40
-35
-32
-28
-27
-23
-23
-22
-18
-15
-13
-8
-7
-2
1
7
11
17
22
27
34
39
46
49
57
60
67
68
72
77
82
85
94
100
108
116
126
136
146
156
169
177
187
195
202
208
215
223
233
245
257
272
288
305
319
330
342
347
349
349
347
347
343
342
342
343
342
342
342
337
335
330
325
319
309
297
283
266
247
226
202
179
152
128
103
78
54
32
9
-13
-32
-51
-70
-89
-105
-122
-136
-150
-161
-172
-183
-195
-206
-214
-221
-227
-229
-231
-231
-231
-231
-231
-229
-226
-221
-218
-216
-212
-209
-207
-206
-204
-206
-204
-202
-200
-195
-190
-185
-181
-177
-176
-176
-172
-175
-175
-172
-175
-176
-176
-177
-178
-177
-176
-175
-171
-167
-161
-156
-150
-145
-139
-136
-134
-131
-134
-135
-135
-136
-136
-132
-132
-129
-124
-117
-111
-107
-104
-101
-99
-95
-91
-88
-83
-78
-74
-68
-61
-55
-50
-47
-43
-42
-42
-44
-47
-50
-51
-51
-50
-51
-53
-54
-58
-61
-65
-69
-74
-78
-83
-89
-93
-99
-104
-109
-115
-120
-124
-130
-135
-140
-146
-147
-151
-151
-151
-150
-147
-147
-146
-146
-146
-145
-142
-141
-137
-136
-132
-131
-131
-127
-125
-120
-116
-112
-109
-105
-102
-100
-100
-102
-112
-130
-155
-187
-222
-254
-280
-290
-279
-246
-186
-100
7
131
266
404
543
679
809
932
1048
1148
1222
1258
1247
1179
1054
879
669
435
197
-27
-226
-385
-499
-568
-586
-565
-514
-443
-367
-293
-228
-177
-141
-117
-104
-101
-104
-109
-115
-120
-125
-126
-124
-121
-115
-109
-102
-95
-88
-84
-80
-76
-74
-71
-69
-65
-61
-56
-51
-48
-45
-43
-43
-44
-45
-44
-42
-35
-30
-24
-18
-12
-8
-4
-2
2
4
9
13
19
27
36
41
46
52
57
62
69
75
85
93
100
109
119
130
143
156
171
186
199
212
221
227
232
236
240
242
246
248
253
259
266
273
281
289
297
300
307
312
317
323
328
334
339
345
347
347
343
337
330
324
318
312
303
293
279
264
246
226
203
182
161
139
118
94
70
47
24
6
-13
-29
-47
-59
-74
-88
-101
-114
-127
-140
-151
-161
-171
-177
-182
-183
-186
-186
-188
-192
-196
-200
-201
-201
-200
-195
-188
-183
-177
-171
-167
-165
-162
-162
-165
-166
-167
-168
-167
-165
-161
-155
-151
-146
-141
-139
-137
-139
-141
-142
-145
-146
-147
-146
-142
-140
-136
-136
-136
-139
-141
-141
-142
-141
-137
-135
-130
-122
-115
-106
-100
-94
-89
-86
-86
-86
-88
-86
-86
-80
-74
-66
-59
-53
-49
-47
-47
-43
-40
-35
-29
-24
-19
-17
-15
-15
-19
-23
-29
-35
-42
-49
-53
-58
-61
-65
-66
-68
-70
-71
-74
-79
-86
-95
-105
-115
-124
-130
-132
-136
-134
-132
-131
-127
-122
-119
-114
-110
-106
-105
-102
-104
-106
-106
-106
-107
-110
-109
-106
-105
-101
-98
-93
-91
-94
-102
-120
-146
-178
-217
-253
-283
-299
-295
-270
-218
-142
-43
75
210
351
497
644
787
926
1057
1171
1262
1313
1318
1266
1156
996
793
565
329
103
-100
-267
-390
-467
-500
-496
-459
-405
-339
-272
-212
-160
-122
-99
-85
-81
-85
-90
-96
-101
-105
-105
-104
-101
-94
-89
-81
-74
-69
-63
-60
-55
-50
-48
-45
-43
-42
-40
-40
-42
-42
-43
-43
-42
-37
-30
-25
-17
-12
-7
-5
-3
-2
-2
-2
1
7
13
18
24
29
34
39
44
49
57
68
79
92
103
111
119
125
130
135
141
148
155
162
170
177
185
194
203
211
221
230
238
247
256
263
272
279
288
297
304
310
315
320
325
328
330
332
328
327
325
322
319
313
308
298
287
276
263
249
236
220
200
177
155
129
101
77
54
34
19
8
-3
-14
-27
-44
-64
-85
-109
-131
-153
-173
-192
-207
-221
-229
-237
-241
-241
-239
-237
-233
-231
-228
-227
-227
-227
-226
-226
-224
-221
-218
-214
-211
-206
-203
-201
-197
-195
-195
-196
-196
-196
-197
-197
-196
-191
-185
-177
-172
-166
-162
-162
-161
-161
-162
-162
-161
-161
-161
-158
-158
-157
-153
-151
-146
-144
-141
-139
-137
-134
-131
-127
-122
-120
-116
-111
-109
-105
-100
-91
-85
-78
-73
-68
-66
-65
-65
-65
-63
-63
-63
-64
-66
-68
-73
-80
-86
-94
-104
-107
-112
-117
-121
-125
-129
-131
-136
-137
-141
-144
-149
-153
-160
-162
-166
-166
-163
-161
-157
-156
-151
-149
-144
-139
-132
-130
-126
-127
-127
-130
-131
-131
-131
-131
-131
-131
-130
-130
-131
-132
-141
-155
-176
-207
-243
-284
-326
-359
-377
-376
-352
-303
-227
-130
-13
118
258
405
553
702
849
988
1114
1213
1274
1286
1237
1129
965
756
518
272
34
-175
-346
-468
-539
-560
-540
-488
-420
-343
-270
-208
-161
-127
-110
-106
-107
-116
-125
-134
-140
-142
-145
-142
-141
-135
-131
-127
-124
-119
-114
-109
-102
-95
-89
-84
-78
-73
-65
-60
-53
-47
-42
-37
-34
-32
-28
-24
-18
-13
-7
-2
3
8
13
19
26
32
38
46
52
58
65
70
77
85
90
98
106
114
121
129
136
146
155
166
177
190
202
215
226
236
246
253
261
267
274
282
289
296
303
309
317
325
333
340
345
351
356
360
365
370
375
378
380
380
380
380
379
376
371
366
359
350
340
327
312
293
273
251
226
201
175
151
129
108
90
73
57
42
24
8
-10
-28
-45
-60
-75
-88
-100
-111
-120
-129
-136
-142
-146
-151
-157
-161
-165
-170
-172
-176
-178
-180
-176
-175
-170
-163
-160
-153
-147
-141
-134
-127
-121
-116
-116
-116
-117
-121
-121
-120
-116
-116
-112
-112
-112
-111
-111
-111
-106
-102
-96
-91
-88
-86
-86
-86
-83
-81
-75
-70
-63
-56
-49
-44
-40
-37
-33
-32
-32
-33
-33
-37
-38
-42
-42
-43
-45
-44
-42
-40
-35
-32
-28
-25
-24
-25
-28
-33
-40
-49
-59
-66
-74
-79
-83
-88
-94
-100
-107
-117
-126
-135
-145
-151
-158
-161
-165
-165
-161
-157
-152
-149
-144
-141
-139
-137
-136
-136
-135
-131
-127
-122
-117
-112
-106
-102
-99
-94
-91
-86
-85
-86
-90
-100
-120
-145
-178
-214
-250
-279
-297
-297
-272
-223
-152
-55
58
189
325
468
610
751
886
1014
1131
1227
1291
1310
1279
1190
1046
860
640
406
176
-37
-219
-362
-464
-519
-533
-510
-464
-402
-334
-270
-209
-166
-139
-122
-114
-111
-111
-111
-111
-111
-109
-104
-99
-90
-83
-74
-65
-59
-53
-50
-48
-47
-48
-48
-47
-47
-44
-42
-42
-38
-38
-37
-37
-37
-37
-33
-33
-29
-25
-22
-17
-12
-5
0
6
12
18
26
32
39
48
55
64
72
77
82
87
92
97
101
106
113
120
126
134
143
150
159
166
175
184
194
201
208
217
227
236
246
253
259
266
273
279
287
296
303
310
317
322
327
332
333
337
342
344
347
350
351
350
347
340
333
323
313
300
286
268
247
225
201
177
152
129
108
87
69
53
41
28
17
4
-10
-24
-39
-53
-68
-81
-95
-107
-119
-130
-137
-144
-147
-151
-152
-152
-151
-152
-151
-150
-146
-142
-141
-137
-136
-135
-132
-131
-127
-126
-124
-121
-117
-115
-112
-111
-111
-111
-111
-112
-116
-120
-121
-122
-122
-121
-116
-110
-105
-96
-90
-83
-78
-73
-71
-69
-66
-65
-63
-61
-56
-53
-50
-47
-45
-44
-42
-42
-45
-47
-48
-49
-49
-48
-43
-39
-33
-28
-24
-22
-23
-28
-34
-42
-51
-64
-76
-88
-101
-111
-122
-130
-131
-134
-132
-131
-129
-127
-127
-130
-134
-139
-146
-155
-161
-167
-171
-171
-167
-163
-160
-156
-152
-147
-142
-139
-136
-132
-130
-127
-124
-121
-117
-116
-116
-119
-129
-149
-173
-211
-250
-293
-329
-355
-365
-351
-314
-249
-160
-50
78
218
365
513
661
810
956
1095
1217
1310
1360
1355
1291
1166
990
774
534
293
64
-134
-295
-412
-484
-513
-507
-471
-416
-351
-285
-226
-175
-137
-110
-91
-80
-74
-71
-71
-71
-71
-69
-66
-64
-60
-56
-51
-47
-40
-37
-32
-28
-23
-19
-13
-8
0
7
12
16
19
24
28
32
33
37
37
38
42
43
47
52
53
58
60
63
67
69
72
73
77
78
82
85
89
94
98
105
110
118
125
133
140
148
155
160
166
169
171
171
172
174
179
186
196
208
220
232
247
259
274
288
300
313
322
329
335
343
348
353
358
363
366
366
366
365
360
355
350
344
338
328
319
309
297
284
272
258
245
228
212
194
174
154
134
113
93
73
54
36
18
1
-15
-29
-43
-55
-68
-78
-88
-96
-104
-109
-111
-111
-112
-111
-111
-111
-112
-116
-119
-121
-122
-122
-122
-122
-121
-120
-115
-105
-96
-84
-73
-65
-61
-65
-73
-83
-96
-106
-115
-120
-119
-117
-112
-107
-101
-95
-89
-81
-75
-71
-69
-66
-68
-66
-66
-61
-56
-50
-44
-38
-28
-19
-8
4
14
26
34
47
59
70
79
87
88
85
77
62
42
21
-2
-20
-38
-53
-65
-75
-80
-81
-80
-76
-74
-73
-74
-79
-83
-90
-94
-98
-101
-102
-106
-107
-111
-115
-117
-117
-116
-115
-112
-111
-109
-107
-106
-106
-106
-106
-106
-105
-101
-95
-90
-84
-78
-75
-74
-76
-84
-96
-116
-140
-171
-206
-241
-269
-287
-285
-263
-217
-144
-49
64
194
330
468
609
746
880
1008
1128
1227
1298
1327
1302
1218
1077
888
662
420
175
-49
-244
-397
-502
-560
-575
-553
-500
-433
-355
-282
-216
-163
-126
-105
-96
-96
-101
-109
-114
-120
-120
-117
-112
-106
-99
-90
-81
-73
-65
-58
-51
-47
-43
-39
-34
-30
-24
-19
-14
-8
-5
-2
-2
-2
0
2
3
6
9
13
18
22
23
23
23
22
23
24
29
33
38
41
42
43
41
34
27
17
11
7
8
14
29
49
77
106
134
159
176
189
192
192
194
197
205
217
232
249
266
279
292
302
308
314
317
320
322
322
322
322
320
318
315
310
305
300
296
291
284
279
276
269
264
258
252
246
235
223
211
196
180
164
146
129
113
97
82
69
57
43
29
14
-2
-18
-34
-50
-65
-79
-90
-102
-111
-117
-122
-126
-130
-131
-135
-137
-141
-144
-146
-149
-151
-151
-150
-147
-146
-144
-142
-142
-142
-144
-146
-146
-145
-141
-140
-134
-130
-126
-121
-117
-114
-109
-104
-100
-96
-91
-88
-84
-80
-76
-71
-66
-61
-58
-53
-50
-49
-48
-48
-48
-47
-42
-37
-29
-22
-14
-8
-4
-2
1
3
4
4
4
3
2
-2
-5
-8
-14
-22
-30
-43
-54
-65
-75
-85
-93
-100
-106
-115
-122
-130
-139
-147
-157
-166
-172
-176
-177
-180
-181
-183
-187
-191
-193
-196
-196
-192
-186
-178
-170
-163
-157
-153
-151
-151
-151
-151
-151
-151
-151
-155
-162
-175
-195
-219
-252
-285
-320
-352
-374
-381
-367
-330
-267
-177
-65
68
216
371
532
694
851
1003
1143
1258
1340
1375
1350
1261
1111
911
675
420
164
-74
-275
-433
-538
-591
-600
-569
-515
-451
-386
-328
-280
-244
-216
-197
-187
-178
-176
-172
-173
-176
-177
-177
-177
-175
-170
-165
-160
-156
-156
-155
-152
-150
-144
-135
-124
-111
-100
-90
-83
-81
-84
-90
-94
-96
-93
-85
-73
-61
-47
-37
-29
-24
-19
-17
-14
-12
-9
-8
-5
0
6
16
29
43
58
73
88
100
113
125
135
144
150
155
160
165
172
179
189
200
212
225
238
253
266
278
287
296
300
304
307
307
310
314
319
325
333
342
349
355
360
365
369
371
374
